Time (ms),EMG Value
2002,-15.44
2015,25.48
2028,-9.31
2042,-15.34
2055,24.28
2068,-10.17
2082,-14.89
2095,25.39
2109,-9.55
2122,-15.15
2135,24.73
2148,-9.98
2162,-15.15
2175,24.96
2188,-9.78
2202,-14.93
2215,24.30
2229,-9.14
2242,-14.42
2255,23.08
2269,-9.07
2282,-13.73
2295,22.50
2309,-8.66
2322,-13.42
2335,22.14
2349,-9.11
2362,-13.19
2375,21.93
2389,-8.19
2402,-12.81
2415,20.42
2429,-8.09
2442,-12.65
2455,20.69
2469,-7.37
2482,-12.14
2495,18.33
2509,-7.42
2522,-10.21
2535,17.84
2549,-6.65
2562,-10.97
2575,16.58
2589,-6.20
2602,-9.80
2615,14.80
2629,-4.25
2642,-8.31
2655,11.85
2669,-4.89
2682,-7.04
2695,11.23
2709,-3.56
2722,-5.46
2735,6.32
2749,-0.70
2762,-6.48
2775,15.04
2788,-5.56
2802,-28.65
2815,25.94
2829,21.14
2842,-29.41
2855,4.90
2869,-0.16
2882,-2.69
2895,11.10
2909,-5.20
2922,-9.06
2935,7.21
2949,3.55
2962,-0.59
2975,1.59
2988,-4.36
3002,-4.23
3015,2.81
3029,1.22
3042,0.36
3055,2.31
3069,-0.07
3082,-2.64
3095,0.23
3108,0.19
3122,-1.03
3135,1.13
3149,1.62
3162,-2.79
3175,-0.04
3188,3.26
3202,-1.41
3215,-2.34
3228,3.44
3242,-1.99
3255,-1.19
3269,2.11
3282,-0.15
3295,-0.59
3309,1.14
3322,-2.38
3335,-2.45
3349,14.23
3362,-13.90
3375,-10.09
3389,26.23
3402,-8.40
3415,-14.73
3429,17.86
3442,-6.72
3455,-11.20
3469,18.80
3482,-7.20
3495,-10.32
3509,19.04
3522,-7.72
3535,-12.59
3549,18.13
3562,-6.44
3575,-11.27
3589,19.78
3602,-8.48
3615,-13.12
3629,22.83
3642,-9.03
3655,-14.65
3669,23.71
3682,-8.79
3695,-15.23
3709,24.07
3722,-9.25
3735,-15.37
3749,25.46
3762,-9.44
3775,-16.44
3789,26.52
3802,-10.57
3815,-17.25
3829,28.17
3842,-10.11
3855,-17.96
3869,28.33
3882,-10.79
3895,-18.16
3909,28.96
3922,-10.22
3935,-18.32
3949,28.38
3962,-10.53
3976,-18.13
3988,28.76
4002,-10.35
4015,-18.23
4029,28.56
4042,-10.46
4055,-18.36
4069,29.28
4082,-11.08
4095,-18.73
4109,29.83
4122,-10.51
4135,-18.91
4149,29.19
4162,-10.82
4175,-18.50
4189,29.00
4202,-9.96
4215,-18.42
4229,28.83
4242,-11.35
4255,-18.59
4269,30.28
4282,-11.02
4295,-18.33
4309,29.41
4322,-11.46
4335,-19.21
4349,29.90
4362,-9.95
4375,-18.33
4389,28.47
4402,-10.56
4415,-18.13
4431,27.15
4441,-8.99
4455,-16.83
4469,26.62
4481,-10.89
4495,-16.15
4509,27.01
4522,-9.56
4535,-17.13
4548,25.16
4562,-9.19
4575,-14.31
4589,23.63
4602,-8.90
4615,-15.36
4629,26.39
4642,-13.38
4655,-16.76
4669,31.68
4682,-10.40
4695,-19.20
4709,27.45
4722,-11.83
4735,-17.21
4749,30.19
4762,-10.78
4775,-18.06
4789,28.76
4802,-11.60
4815,-17.86
4829,28.60
4842,-10.47
4855,-17.27
4869,28.04
4882,-11.18
4895,-17.23
4909,28.58
4922,-10.90
4935,-17.32
4949,27.51
4962,-10.38
4975,-16.77
4989,27.07
5002,-10.18
5015,-17.31
5029,27.35
5042,-10.06
5055,-16.18
5069,26.48
5082,-10.72
5095,-16.52
5109,26.63
5122,-10.09
5135,-15.73
5149,26.09
5162,-9.90
5175,-15.96
5189,25.29
5202,-10.28
5215,-15.24
5229,25.52
5242,-9.13
5255,-15.76
5269,24.39
5282,-9.08
5295,-14.65
5309,22.21
5322,-7.88
5335,-13.14
5349,21.46
5362,-7.72
5375,-13.80
5389,20.34
5402,-7.72
5415,-12.66
5429,22.13
5442,-8.54
5455,-14.12
5469,21.81
5482,-7.95
5495,-13.53
5508,21.11
5522,-7.60
5535,-12.31
5549,19.40
5562,-7.70
5575,-11.67
5589,19.26
5602,-6.47
5615,-11.80
5628,16.25
5642,-5.68
5655,-7.87
5668,8.94
5682,1.37
5695,-4.09
5708,2.43
5722,-5.19
5735,-2.84
5749,13.57
5762,-5.80
5775,-7.75
5789,12.36
5802,-6.04
5815,-7.48
5828,11.97
5842,-2.99
5855,-6.42
5868,8.16
5882,-2.73
5895,-4.86
5908,6.74
5922,-0.86
5935,-3.97
5948,4.04
5962,-2.15
5975,-2.82
5988,5.24
6002,-1.37
6015,-1.74
6028,2.25
6042,-1.07
6055,-1.23
6068,1.21
6082,2.27
6095,-6.94
6109,5.20
6122,4.78
6135,-10.32
6148,1.16
6162,10.62
6175,-4.07
6188,-6.12
6202,1.99
6215,-2.18
6228,1.40
6242,8.57
6255,-4.37
6269,-5.05
6282,4.84
6295,-3.41
6308,-2.38
6322,8.13
6335,-4.51
6348,-3.95
6362,9.21
6375,-4.42
6388,-5.21
6402,9.72
6415,-5.58
6428,-6.38
6442,13.28
6455,-5.18
6475,-8.37
6482,13.73
6495,-5.97
6508,-8.97
6522,16.63
6535,-7.32
6548,-10.75
6561,18.00
6575,-6.52
6589,-11.40
6602,18.67
6615,-8.03
6628,-11.75
6642,19.41
6655,-6.12
6668,-11.96
6682,18.13
6695,-8.07
6709,-11.52
6722,19.59
6735,-6.07
6748,-12.43
6762,20.05
6775,-10.14
6789,-13.80
6802,25.88
6815,-9.67
6828,-16.13
6842,27.65
6855,-12.90
6868,-18.65
6882,30.67
6895,-9.36
6909,-17.75
6922,27.53
6935,-11.99
6949,-18.59
6962,29.65
6975,-9.20
6989,-17.90
7002,28.00
7015,-11.34
7029,-17.68
7042,27.69
7055,-10.39
7068,-16.38
7082,29.17
7095,-12.51
7109,-18.68
7122,29.45
7135,-9.77
7149,-18.25
7162,28.31
7175,-10.57
7188,-17.88
7202,27.35
7215,-9.10
7228,-17.12
7242,26.46
7255,-10.81
7268,-16.41
7282,29.23
7295,-12.24
7309,-18.31
7322,29.55
7335,-10.07
7348,-18.66
7362,28.32
7375,-11.00
7388,-17.19
7402,29.18
7415,-11.07
7428,-18.96
7442,28.74
7455,-9.74
7468,-17.83
7482,28.53
7495,-11.54
7508,-17.74
7522,29.15
7535,-10.71
7549,-18.64
7562,28.92
7575,-10.55
7588,-17.30
7602,28.88
7615,-12.05
7628,-18.27
7642,29.50
7655,-10.57
7668,-18.31
7682,29.71
7695,-11.18
7708,-18.63
7722,28.61
7735,-10.99
7748,-17.20
7762,29.37
7775,-10.90
7788,-18.91
7802,27.95
7815,-9.74
7829,-17.18
7842,28.46
7855,-10.82
7868,-18.70
7882,27.18
7895,-9.03
7908,-15.50
7922,26.98
7935,-12.09
7949,-17.19
7962,26.65
7975,-8.32
7988,-15.95
8002,25.56
8015,-10.55
8029,-16.49
8042,27.05
8055,-10.92
8069,-16.21
8082,28.19
8095,-10.72
8108,-17.33
8121,26.24
8135,-9.99
8148,-15.62
8162,26.07
8175,-9.85
8188,-15.76
8202,25.46
8215,-10.32
8228,-15.45
8242,25.33
8255,-9.33
8268,-15.02
8282,23.85
8295,-9.39
8308,-14.25
8322,23.41
8335,-8.93
8349,-13.83
8362,22.32
8375,-8.75
8388,-13.23
8402,21.58
8415,-8.38
8428,-12.50
8442,20.05
8455,-7.30
8468,-12.38
8482,19.96
8495,-8.04
8508,-12.08
8522,19.69
8535,-7.57
8548,-11.79
8562,19.89
8575,-7.25
8589,-12.48
8602,17.38
8615,-5.70
8628,-9.98
8642,16.05
8655,-5.94
8668,-8.86
8682,12.78
8695,-4.66
8708,-6.79
8722,10.66
8735,-3.29
8748,-4.90
8762,4.90
8775,-1.37
8788,-1.87
8802,5.39
8815,-3.65
8828,-6.18
8841,16.91
8855,-12.76
8868,-11.27
8882,19.58
8895,2.18
8908,-8.87
8922,0.73
8935,-5.00
8948,-0.93
8962,8.97
8975,0.36
8988,-3.07
9002,1.47
9015,-2.81
9028,-2.56
9042,3.44
9055,0.57
9068,-1.08
9082,2.15
9095,-1.49
9108,-1.72
9122,2.10
9135,0.00
9148,-1.16
9162,1.20
9175,-0.89
9188,-0.95
9202,1.92
9215,0.27
9228,-1.87
9242,0.81
9255,1.13
9268,-1.89
9282,0.52
9295,1.25
9308,-1.58
9322,0.39
9335,1.65
9348,-2.26
9362,-0.69
9375,3.72
9388,-1.91
9402,-1.91
9415,2.92
9428,-1.51
9442,-1.29
9455,3.79
9468,-2.51
9482,-2.18
9495,4.96
9508,-2.43
9522,-2.76
9535,5.52
9548,-2.91
9562,-3.25
9575,6.71
9588,-3.73
9602,-3.31
9615,8.35
9628,-4.83
9642,-4.88
9655,8.89
9668,-3.55
9682,-4.79
9695,9.95
9708,-5.02
9722,-6.47
9735,9.46
9748,-2.64
9762,-4.72
9775,7.98
9788,-3.66
9802,-4.75
9815,7.48
9828,-2.75
9842,-5.30
9855,12.31
9868,-8.75
9882,-10.74
9895,26.96
9909,-14.56
9922,-16.49
9935,27.02
9948,-4.93
9962,-15.99
9975,17.10
9988,-8.42
10002,-10.83
10015,23.29
10028,-7.37
10042,-14.39
10055,20.38
10068,-9.01
10082,-13.54
10095,22.59
10108,-7.54
10122,-12.75
10135,17.86
10148,-4.90
10162,-10.17
10175,16.34
10188,-9.46
10202,-11.78
10215,23.63
10228,-8.59
10242,-14.78
10255,26.96
10268,-14.36
10282,-18.75
10295,30.99
10308,-7.88
10322,-17.20
10335,25.18
10348,-12.24
10362,-16.51
10375,28.78
10388,-9.72
10402,-16.59
10415,26.28
10428,-10.59
10442,-16.49
10455,26.24
10468,-9.71
10482,-16.55
10495,26.60
10508,-9.77
10522,-15.84
10535,26.05
10548,-10.50
10562,-17.18
10575,26.61
10588,-9.32
10602,-15.43
10615,26.30
10628,-11.31
10642,-16.69
10655,26.91
10668,-9.85
10682,-15.19
10695,23.28
10708,-7.30
10722,-14.18
10735,22.42
10748,-11.24
10762,-15.04
10775,27.65
10788,-8.80
10802,-16.08
10815,24.25
10828,-11.27
10842,-15.60
10855,26.71
10868,-9.26
10882,-15.46
10895,25.43
10908,-10.58
10922,-15.78
10935,25.15
10948,-9.28
10962,-14.99
10975,24.65
10988,-10.02
11002,-14.99
11015,25.02
11028,-8.94
11042,-16.55
11055,25.05
11068,-8.96
11081,-15.19
11095,24.75
11108,-10.24
11122,-16.15
11135,26.79
11148,-9.22
11162,-16.41
11175,24.52
11188,-9.14
11202,-14.64
11215,23.74
11228,-9.68
11242,-14.20
11255,23.62
11268,-7.86
11282,-15.25
11295,22.29
11308,-8.05
11322,-13.19
11335,20.98
11348,-8.68
11362,-12.13
11375,20.60
11388,-7.32
11402,-11.89
11415,18.28
11428,-7.86
11442,-10.70
11455,18.61
11468,-7.05
11482,-10.55
11495,17.07
11508,-7.08
11521,-9.84
11535,16.38
11548,-5.81
11562,-10.30
11575,14.58
11588,-3.96
11601,-8.15
11615,11.61
11628,-5.31
11642,-6.16
11655,10.24
11668,-3.04
11682,-3.99
11695,3.52
11708,1.05
11721,-2.02
11735,2.17
11748,-5.26
11762,-2.77
11775,15.11
11788,-7.24
11802,-8.73
11815,10.00
11828,-0.33
11842,-4.86
11855,3.16
11868,-2.88
11882,-1.13
11895,5.95
11908,-0.92
11921,-2.55
11935,1.74
11948,-2.23
11962,-1.15
11975,3.57
11988,-1.37
12001,-1.05
12015,2.50
12028,-1.15
12041,-1.03
12055,1.76
12068,-1.69
12082,-0.64
12095,2.62
12108,-1.26
12121,-0.91
12135,1.94
12148,-0.88
12162,-1.48
12175,1.95
12188,-0.84
12201,-0.10
12215,1.42
12228,-1.40
12242,-0.76
12255,1.97
12268,-1.56
12282,-0.46
12295,2.58
12308,-0.73
12321,-1.75
12335,0.51
12348,1.01
12361,-0.83
12375,0.10
12388,0.55
12402,-0.68
12415,0.40
12428,0.48
12441,-1.01
12455,0.06
12468,1.25
12482,-1.44
12495,-0.35
12508,2.40
12522,-1.64
12535,-0.97
12548,2.33
12562,-1.34
12575,-1.18
12588,3.45
12602,-2.81
12615,-2.14
12628,6.04
12641,-2.93
12655,-3.36
12668,5.75
12682,-2.44
12695,-3.60
12708,7.41
12722,-4.66
12735,-4.68
12748,10.09
12761,-3.48
12775,-6.13
12788,9.75
12802,-5.29
12815,-6.34
12828,12.41
12841,-4.43
12855,-7.56
12868,12.62
12882,-6.09
12895,-8.37
12908,15.35
12921,-6.08
12935,-9.56
12948,15.85
12961,-6.28
12975,-10.36
12988,17.90
13002,-7.97
13015,-11.55
13028,20.04
13042,-7.05
13055,-12.58
13068,19.49
13081,-8.02
13095,-12.57
13108,21.48
13121,-8.52
13135,-12.91
13148,22.81
13162,-10.34
13175,-14.38
13188,24.45
13202,-8.61
13215,-15.43
13228,24.15
13241,-9.80
13255,-14.55
13268,25.15
13282,-10.15
13295,-15.64
13308,25.59
13321,-10.19
13335,-15.41
13348,26.11
13362,-10.09
13375,-16.12
13388,25.98
13402,-10.03
13415,-17.34
13428,27.49
13441,-9.19
13455,-16.41
13468,25.34
13481,-10.39
13495,-16.49
13508,27.02
13521,-9.54
13535,-15.92
13548,26.04
13562,-11.19
13575,-16.43
13588,27.07
13602,-9.86
13615,-16.06
13628,26.42
13642,-10.70
13655,-16.38
13668,26.67
13682,-10.28
13695,-16.14
13708,26.66
13722,-10.42
13735,-16.11
13748,25.81
13762,-9.09
13775,-16.37
13788,25.06
13801,-9.75
13815,-14.93
13828,25.89
13842,-10.62
13855,-16.09
13868,25.87
13882,-9.59
13895,-16.09
13908,26.39
13921,-9.93
13935,-16.20
13948,24.56
13961,-9.18
13975,-14.44
13988,24.91
14002,-10.30
14015,-15.28
14028,24.36
14042,-8.89
14055,-14.43
14068,23.70
14082,-9.84
14095,-14.31
14108,23.72
14121,-8.71
14135,-13.94
14148,22.07
14161,-8.85
14175,-13.12
14188,21.74
14202,-8.31
14215,-12.70
14228,20.62
14242,-8.18
14255,-12.12
14268,19.87
14282,-7.81
14295,-11.69
14308,19.65
14321,-8.06
14335,-12.01
14348,19.37
14361,-6.29
14375,-11.16
14388,16.08
14401,-7.10
14415,-8.83
14428,16.57
14442,-6.06
14455,-9.21
14468,13.30
14482,-5.61
14495,-7.06
14508,12.57
14521,-4.73
14535,-7.07
14548,11.03
14561,-4.10
14575,-5.58
14588,7.63
14601,-2.92
14615,-3.03
14628,6.87
14641,-3.93
14655,-3.87
14668,6.52
14682,-1.82
14695,-2.53
14708,3.45
14721,-2.64
14735,-1.36
14748,5.02
14762,-1.86
14775,-2.63
14788,2.39
14802,-0.64
14815,-1.46
14828,2.87
14841,-1.38
14855,-1.00
14868,2.93
14881,-2.28
14895,-1.53
14908,2.69
14922,-0.61
14935,-0.64
14948,1.80
14961,-1.87
14975,-0.83
14988,2.55
15002,-1.23
15015,-0.86
15028,1.96
15041,-0.88
15055,-1.34
15068,1.31
15082,-0.30
15095,0.79
15108,0.84
15121,-3.05
15135,-0.27
15148,3.09
15161,-0.16
15175,-0.98
15188,0.00
15201,-0.89
15215,-0.49
15228,2.27
15241,-0.41
15255,-1.21
15268,1.51
15282,-0.80
15295,-1.13
15308,0.90
15321,0.90
15335,-1.07
15348,0.06
15361,0.66
15375,-0.62
15388,0.17
15402,1.02
15415,-1.71
15428,-0.42
15441,2.53
15455,-1.48
15468,-1.07
15481,2.94
15495,-2.07
15508,-1.75
15521,4.64
15535,-2.89
15548,-2.68
15561,6.14
15575,-3.45
15588,-2.26
15601,6.57
15615,-4.85
15628,-4.29
15641,9.48
15655,-2.97
15669,-5.77
15681,9.40
15695,-5.70
15708,-6.22
15721,12.83
15735,-4.25
15748,-7.79
15761,12.29
15775,-6.19
15788,-8.06
15801,15.08
15815,-5.96
15828,-8.56
15841,15.57
15855,-7.50
15868,-10.78
15882,18.88
15895,-7.64
15908,-10.80
15921,19.72
15935,-8.25
15948,-13.37
15962,20.70
15975,-7.68
15988,-12.69
16001,22.12
16015,-8.60
16028,-14.58
16041,23.15
16055,-9.87
16068,-14.06
16082,25.29
16095,-9.70
16108,-15.64
16121,23.67
16135,-8.75
16148,-14.49
16162,24.90
16175,-10.20
16188,-15.65
16202,25.41
16215,-10.35
16228,-15.31
16241,26.24
16255,-9.25
16268,-16.70
16281,24.73
16295,-9.12
16308,-15.59
16322,25.38
16335,-9.35
16348,-16.08
16361,25.21
16375,-9.19
16388,-15.92
16402,25.35
16415,-9.96
16428,-15.31
16441,25.77
16455,-10.43
16468,-15.85
16482,25.78
16495,-9.19
16508,-16.24
16522,25.28
16535,-9.73
16548,-14.70
16562,23.72
16575,-8.63
16588,-14.63
16602,23.73
16615,-10.77
16628,-14.61
16641,26.94
16655,-10.02
16668,-16.55
16682,25.75
16695,-10.93
16708,-15.78
16722,26.68
16735,-9.33
16748,-15.83
16761,25.07
16775,-10.54
16788,-15.51
16802,26.19
16815,-9.90
16828,-15.62
16842,24.93
16855,-9.54
16868,-14.94
16882,23.88
16895,-8.64
16908,-15.10
16922,23.59
16935,-9.10
16948,-13.79
16961,23.37
16975,-9.44
16988,-14.39
17002,23.06
17015,-9.02
17028,-13.46
17042,22.77
17055,-8.69
17068,-13.40
17082,20.58
17095,-7.80
17108,-11.95
17122,19.72
17135,-7.95
17148,-11.45
17161,19.17
17175,-7.50
17188,-10.95
17202,17.35
17215,-6.63
17228,-9.84
17241,16.19
17255,-6.82
17268,-9.00
17282,15.20
17295,-5.63
17308,-8.03
17322,12.08
17335,-4.73
17348,-6.05
17361,9.57
17375,-3.17
17388,-4.27
17402,3.56
17415,0.93
17428,-0.30
17441,1.58
17455,-5.69
17468,-1.26
17481,8.67
17495,-2.58
17508,-3.44
17521,4.38
17534,-3.23
17548,-2.65
17561,5.48
17575,-1.72
17588,-2.35
17601,3.90
17615,-1.73
17628,-1.72
17641,3.04
17655,-1.80
17668,-0.80
17682,2.29
17695,-2.11
17708,-0.49
17721,3.26
17735,-1.18
17748,-1.61
17761,1.44
17775,-1.45
17788,-0.20
17802,2.80
17815,-1.41
17828,-1.03
17841,1.30
17855,-0.82
17868,-0.32
17881,1.86
17895,-1.95
17908,-0.67
17921,2.84
17935,-1.16
17948,-1.10
17961,1.66
17975,-0.96
17988,-1.19
18001,1.34
18015,0.58
18028,-0.42
18041,0.24
18055,-0.85
18068,-0.54
18081,1.26
18095,0.02
18108,-0.57
18121,0.65
18135,-0.45
18148,-0.58
18161,0.62
18174,1.07
18188,-1.88
18201,-0.38
18215,2.73
18228,-1.43
18241,-1.26
18255,2.71
18268,-2.12
18281,-1.60
18295,4.82
18308,-2.82
18321,-2.73
18335,5.89
18348,-2.71
18361,-3.59
18375,6.89
18388,-3.88
18402,-4.09
18415,8.08
18428,-2.76
18441,-4.61
18455,7.48
18468,-4.08
18481,-4.86
18495,10.16
18508,-4.46
18521,-6.34
18535,11.49
18548,-5.19
18561,-7.44
18575,13.27
18588,-5.67
18601,-8.31
18615,14.37
18628,-5.60
18641,-9.13
18655,15.45
18668,-6.79
18681,-9.90
18695,17.17
18708,-6.35
18721,-10.89
18735,17.86
18748,-7.72
18761,-11.70
18775,20.44
18788,-7.85
18801,-12.95
18815,20.94
18828,-8.03
18841,-13.41
18855,21.72
18868,-8.35
18881,-13.84
18895,22.90
18908,-9.26
18921,-13.86
18935,23.82
18948,-9.52
18961,-15.62
18975,24.55
18988,-8.57
19002,-15.13
19015,24.45
19028,-9.93
19041,-15.00
19055,24.88
19068,-9.98
19082,-15.26
19095,25.80
19108,-10.28
19121,-15.65
19135,25.94
19148,-10.09
19161,-15.86
19175,25.59
19188,-10.11
19202,-15.50
19215,25.95
19228,-10.07
19241,-15.74
19255,25.52
19268,-9.53
19282,-16.35
19295,25.28
19308,-8.88
19321,-15.74
19335,25.23
19348,-10.18
19361,-15.41
19375,25.86
19388,-10.30
19401,-15.64
19415,25.25
19428,-9.24
19441,-15.08
19455,24.32
19468,-9.53
19481,-15.54
19495,24.23
19508,-8.40
19521,-14.36
19535,24.67
19548,-11.82
19561,-15.77
19575,27.09
19588,-9.09
19601,-15.41
19615,22.96
19628,-8.67
19641,-14.11
19655,23.28
19668,-10.20
19682,-13.92
19695,24.45
19708,-8.48
19721,-14.24
19735,20.82
19748,-8.39
19761,-12.51
19774,21.54
19788,-8.71
19801,-12.41
19815,20.46
19828,-7.15
19841,-12.52
19855,18.91
19868,-7.50
19881,-11.05
19895,17.47
19908,-6.16
19921,-9.41
19935,16.12
19948,-7.30
19961,-9.44
19975,15.14
19988,-5.37
20001,-7.88
20015,12.85
20028,-5.46
20041,-6.87
20055,11.47
20068,-4.61
20082,-5.75
20095,9.61
20108,-3.99
20121,-5.27
20134,8.51
20148,-2.48
20161,-4.72
20174,5.30
20188,-2.07
20201,-1.82
20215,5.37
20228,-2.71
20241,-3.53
20255,4.31
20268,-1.82
20281,-1.49
20295,4.59
20308,-1.89
20321,-2.39
20334,2.62
20348,-1.66
20361,-0.21
20375,1.95
20388,-1.44
20401,-0.31
20415,2.51
20428,-2.00
20441,-0.76
20455,1.47
20468,-1.45
20481,0.13
20495,2.94
20508,-1.80
20521,-1.68
20535,1.87
20548,-1.11
20561,-0.28
20575,2.51
20588,-1.74
20601,-0.32
20615,0.63
20628,-0.47
20641,-0.30
20655,1.35
20668,-1.09
20681,0.46
20695,0.49
20708,-1.80
20721,0.31
20735,2.27
20748,-1.09
20761,-0.92
20775,0.75
20788,-0.56
20801,0.13
20815,0.64
20828,-1.01
20841,0.66
20855,1.52
20868,-1.30
20881,-1.81
20894,0.58
20908,2.08
20921,-1.08
20935,-0.50
20948,2.06
20961,-1.92
20975,-1.40
20988,3.67
21001,-2.53
21015,-1.77
21028,4.65
21041,-1.66
21054,-2.58
21068,4.70
21081,-3.44
21094,-3.63
21108,8.00
21121,-2.32
21135,-4.67
21148,6.23
21161,-3.49
21175,-3.63
21188,8.93
21201,-4.46
21215,-4.91
21228,9.77
21241,-5.16
21255,-6.56
21268,12.07
21281,-4.43
21294,-7.25
21308,12.83
21321,-6.21
21335,-8.51
21348,14.57
21361,-5.29
21375,-7.89
21388,10.91
21401,-2.18
21415,-6.41
21428,9.53
21441,-7.04
21455,-6.69
21468,19.30
21481,-9.59
21495,-13.04
21508,21.38
21521,-7.33
21535,-12.47
21548,20.16
21561,-9.24
21575,-13.54
21588,22.98
21601,-7.87
21615,-13.05
21628,22.49
21642,-10.64
21655,-14.53
21668,23.81
21681,-8.57
21695,-13.05
21708,22.15
21721,-9.33
21735,-14.39
21748,24.17
21761,-9.42
21775,-14.53
21788,23.76
21801,-9.09
21815,-15.24
21828,23.74
21841,-8.12
21855,-14.74
21868,24.06
21881,-10.43
21895,-14.89
21908,25.23
21921,-9.08
21935,-15.99
21948,24.25
21961,-8.55
21975,-15.05
21988,24.42
22001,-9.97
22015,-14.31
22028,22.41
22041,-7.26
22054,-12.89
22068,19.46
22081,-7.96
22095,-13.30
22108,24.63
22121,-11.13
22135,-15.95
22148,26.82
22161,-8.44
22175,-16.85
22188,23.99
22201,-10.13
22215,-15.17
22228,27.40
22241,-9.74
22255,-16.61
22268,24.16
22281,-9.29
22295,-14.39
22308,24.96
22321,-10.28
22335,-15.25
22348,24.42
22361,-8.84
22375,-14.42
22388,23.66
22401,-9.89
22415,-14.50
22428,24.20
22441,-8.73
22455,-15.13
22468,22.91
22481,-8.37
22495,-13.24
22508,22.14
22521,-9.35
22535,-13.63
22548,22.53
22561,-8.62
22575,-12.90
22588,20.89
22601,-7.17
22615,-13.23
22628,19.55
22641,-8.13
22655,-11.15
22668,20.49
22682,-8.10
22695,-12.19
22708,18.70
22721,-7.35
22735,-10.49
22748,17.64
22761,-6.51
22775,-10.68
22788,16.70
22801,-6.47
22815,-9.51
22828,14.68
22841,-5.42
22854,-7.55
22868,13.03
22881,-5.67
22894,-7.04
22908,10.73
22921,-3.76
22935,-4.98
22948,8.51
22961,-3.96
22975,-4.68
22988,8.00
23001,-2.74
23014,-3.72
23028,5.33
23041,-3.06
23054,-2.33
23068,5.98
23081,-1.84
23094,-3.21
23108,3.10
23121,-1.90
23134,-0.40
23148,3.04
23161,-1.84
23174,-1.02
23188,2.52
23201,-1.43
23214,-1.27
23228,1.93
23241,-1.23
23254,-0.47
23268,3.21
23281,-2.23
23295,-1.72
23308,3.22
23321,-1.52
23334,-1.23
23348,2.34
23361,-1.10
23375,-0.77
23388,1.88
23401,-0.95
23415,-1.41
23428,1.92
23441,-0.16
23454,-0.87
23468,0.77
23481,-0.23
23495,-0.64
23508,0.70
23521,-0.27
23534,-0.34
23548,1.05
23561,-0.29
23574,-0.74
23588,0.67
23601,-0.49
23615,0.00
23628,0.93
23641,-1.44
23655,0.26
23668,1.29
23681,-0.45
23694,-0.18
23708,-0.18
23721,-0.90
23734,0.08
23748,1.77
23761,-0.16
23774,-1.14
23788,0.34
23801,-0.28
23815,-0.23
23828,0.94
23841,0.34
23855,-1.54
23868,0.70
23881,0.89
23894,-1.64
23908,0.21
23921,2.08
23934,-1.09
23948,-1.75
23961,2.46
23975,-1.85
23988,-0.32
24001,3.34
24015,-2.41
24028,-1.77
24041,3.48
24054,-1.26
24068,-1.76
24081,3.96
24094,-3.36
24108,-2.65
24121,7.14
24135,-3.18
24148,-3.42
24161,6.61
24174,-4.55
24188,-3.21
24201,9.16
24215,-4.37
24228,-6.05
24241,8.99
24255,-3.12
24268,-5.13
24281,11.19
24294,-6.91
24308,-6.75
24321,12.93
24335,-4.32
24348,-8.00
24361,12.56
24374,-6.37
24388,-7.20
24401,15.98
24414,-7.60
24428,-9.83
24441,16.31
24454,-6.07
24468,-10.14
24481,16.76
24494,-7.11
24508,-9.59
24521,17.22
24535,-6.97
24548,-11.43
24561,18.23
24575,-7.67
24588,-10.60
24601,20.62
24614,-8.91
24628,-13.85
24641,21.17
24655,-7.14
24668,-12.74
24681,20.85
24694,-8.21
24708,-13.59
24721,21.64
24735,-8.28
24748,-13.67
24761,23.01
24775,-9.30
24788,-13.83
24801,23.07
24814,-8.85
24828,-14.87
24841,22.78
24855,-7.78
24868,-14.21
24881,23.93
24895,-10.82
24908,-14.76
24921,25.05
24934,-8.86
24948,-15.08
24961,23.96
24975,-10.44
24988,-14.68
25001,25.77
25015,-9.51
25028,-15.50
25041,24.21
25055,-9.39
25068,-15.59
25081,24.86
25094,-9.10
25108,-14.56
25121,24.49
25134,-9.90
25148,-16.13
25161,24.67
25174,-8.14
25188,-14.83
25201,23.60
25215,-9.47
25228,-14.44
25241,23.84
25255,-9.81
25268,-14.45
25281,24.48
25294,-9.25
25308,-14.63
25321,23.62
25335,-9.12
25348,-15.08
25361,23.20
25375,-8.15
25388,-13.37
25401,22.68
25415,-10.13
25428,-14.04
25441,23.10
25454,-8.00
25468,-13.36
25481,21.72
25494,-9.48
25508,-13.37
25521,22.78
25534,-8.68
25548,-13.15
25561,20.91
25574,-7.73
25588,-12.21
25601,19.39
25615,-8.05
25628,-11.31
25641,19.38
25654,-7.40
25668,-11.14
25681,17.91
25694,-7.36
25708,-10.22
25721,16.76
25734,-6.06
25748,-9.96
25761,15.89
25774,-6.24
25788,-9.02
25801,13.79
25815,-5.13
25828,-7.13
25841,12.84
25854,-6.05
25868,-7.01
25881,11.08
25895,-3.56
25908,-4.20
25921,4.37
25934,-0.18
25948,-1.18
25961,2.23
25974,-4.38
25988,-1.51
26001,7.96
26015,-2.27
26028,-3.51
26041,3.06
26054,-2.55
26068,-1.43
26081,5.66
26094,-2.45
26108,-2.94
26121,3.95
26135,-1.54
26148,-1.05
26161,2.95
26174,-2.80
26188,-1.43
26201,4.81
26215,-2.11
26228,-1.62
26241,1.56
26254,-1.04
26268,0.76
26281,1.70
26294,-2.66
26308,-0.21
26321,2.27
26334,-1.48
26348,-0.56
26361,2.46
26374,-1.63
26388,-1.21
26401,2.14
26415,-1.20
26428,-0.53
26441,2.35
26454,-1.57
26468,-0.87
26481,1.38
26494,-0.07
26508,-1.03
26521,1.23
26535,-0.81
26548,-0.77
26561,2.15
26574,-0.56
26588,-1.34
26601,0.88
26615,-0.56
26628,0.32
26641,1.10
26654,-1.00
26668,-1.09
26681,1.34
26694,-0.25
26708,0.32
26721,0.83
26734,-1.34
26748,-1.28
26761,1.41
26774,-0.00
26788,0.56
26801,0.91
26815,-1.43
26828,-1.43
26841,1.15
26854,0.62
26868,-0.23
26881,1.23
26894,-1.51
26908,-1.21
26921,1.53
26934,0.57
26948,-0.58
26961,0.21
26974,-0.71
26988,-0.39
27001,1.12
27014,0.57
27028,-1.35
27041,0.08
27055,0.78
27068,-0.77
27081,0.89
27094,-0.32
27108,-1.32
27121,0.78
27134,1.93
27148,-1.64
27161,-1.07
27174,2.01
27188,-1.40
27201,-0.66
27214,3.20
27228,-2.13
27241,-1.80
27254,3.87
27268,-2.20
27281,-2.21
27294,5.49
27308,-3.23
27321,-3.12
27334,6.17
27348,-2.26
27361,-3.60
27374,6.52
27388,-4.11
27401,-4.11
27414,8.99
27428,-3.32
27441,-5.25
27454,8.51
27468,-4.24
27481,-5.37
27494,10.33
27508,-4.77
27521,-5.27
27535,10.38
27548,-4.55
27561,-6.10
27574,8.01
27588,-1.43
27601,-3.86
27614,6.17
27628,-4.18
27641,-7.07
27654,21.16
27668,-16.11
27681,-13.53
27695,24.41
27708,1.49
27721,-10.49
27734,-3.23
27748,0.66
27761,1.53
27774,6.67
27788,-6.09
27801,-4.53
27815,14.49
27828,-6.75
27841,-9.36
27854,13.15
27868,-6.47
27881,-8.94
27894,17.50
27908,-6.15
27921,-11.11
27934,21.65
27948,-12.07
27961,-13.97
27974,23.71
27988,-6.79
28001,-13.42
28015,18.98
28028,-8.68
28041,-11.32
28054,21.55
28068,-7.52
28081,-13.31
28094,18.92
28107,-6.78
28121,-11.98
28134,19.77
28147,-8.82
28161,-11.58
28174,20.62
28188,-6.97
28201,-13.07
28214,19.17
28228,-7.79
28241,-12.17
28254,21.57
28268,-8.78
28281,-12.73
28295,20.83
28308,-8.14
28321,-12.28
28335,19.78
28348,-7.70
28361,-11.20
28375,18.41
28388,-6.97
28401,-10.28
28415,15.60
28428,-5.78
28441,-8.12
28454,12.44
28468,-4.35
28481,-6.26
28494,10.01
28508,-4.74
28521,-5.77
28535,12.44
28548,-7.02
28561,-7.67
28575,16.08
28588,-7.15
28601,-9.53
28615,16.36
28628,-7.04
28641,-9.38
28655,15.90
28668,-6.12
28681,-8.78
28694,14.53
28708,-6.22
28721,-7.98
28735,13.37
28748,-5.08
28761,-6.82
28774,10.34
28788,-3.46
28801,-5.79
28814,8.23
28828,-3.39
28841,-3.36
28854,7.14
28868,-3.80
28881,-3.52
28894,6.16
28908,-2.78
28921,-2.91
28934,6.17
28948,-2.66
28961,-2.79
28974,3.85
28988,-2.41
29001,-0.73
29015,4.08
29028,-2.56
29041,-1.84
29054,4.55
29068,-3.78
29081,-2.80
29094,8.34
29108,-3.52
29121,-4.50
29134,5.19
29148,-1.03
29161,-1.53
29174,2.44
29188,-2.89
29201,-0.21
29214,3.78
29228,-1.70
29241,-1.53
29254,2.08
29268,-1.34
29281,-0.88
29294,2.17
29308,-1.30
29321,-0.53
29334,2.43
29348,-1.54
29361,-1.10
29374,2.08
29388,-1.42
29401,-0.70
29414,2.39
29428,-1.39
29441,-0.86
29454,2.21
29468,-1.47
29481,-0.69
29494,1.62
29508,-0.90
29521,0.36
29534,0.39
29548,-1.72
29561,0.44
29574,2.27
29588,-1.21
29601,-1.17
29614,1.56
29628,-1.64
29641,-0.16
29654,2.24
29668,-0.64
29681,-0.69
29694,0.63
29708,-1.45
29721,0.08
29734,1.94
29748,-0.93
29761,-0.43
29774,1.13
29788,-1.29
29801,-0.24
29814,1.52
29828,-1.06
29841,-0.25
29854,1.39
29868,-1.17
29881,-0.29
29894,1.40
29908,-1.14
29921,-0.27
29934,1.42
29948,-1.14
29961,-0.27
29974,1.26
29988,-0.50
30001,-0.94
30014,0.88
30027,0.06
30041,-0.36
30054,0.86
30068,-1.21
30081,0.00
30094,1.34
30108,-0.67
30121,-1.07
30134,0.98
30148,0.25
30161,-0.30
30174,0.59
30188,-0.71
30201,-0.72
30214,1.01
30228,-0.03
30241,-0.43
30254,0.81
30268,-0.40
30281,-0.64
30294,0.83
30308,-0.27
30321,-0.68
30334,1.52
30348,-0.96
30361,-0.94
30374,1.25
30388,0.93
30401,-1.41
30414,-0.47
30427,1.39
30441,-1.71
30454,0.73
30468,2.06
30481,-1.75
30494,-1.15
30508,1.35
30521,-0.67
30534,0.71
30548,1.45
30561,-3.24
30574,0.02
30588,4.28
30601,-2.42
30614,-2.74
30627,3.68
30641,-1.50
30654,-1.27
30668,4.28
30681,-3.22
30694,-1.13
30707,3.51
30721,-2.89
30734,-0.57
30748,2.27
30761,0.04
30774,-1.78
30788,6.86
30801,-9.69
30814,-5.43
30828,19.18
30841,-7.62
30854,-11.18
30868,15.25
30881,-4.49
30894,-8.29
30908,11.33
30921,-5.36
30934,-6.72
30948,13.00
30961,-3.55
30974,-7.45
30988,11.05
31001,-6.22
31014,-7.38
31028,12.95
31041,-4.09
31054,-6.16
31068,10.73
31081,-5.69
31094,-6.26
31108,11.54
31121,-4.89
31134,-6.31
31148,12.40
31161,-6.06
31174,-8.18
31188,13.98
31201,-5.39
31214,-7.56
31228,14.20
31241,-7.39
31254,-8.66
31268,15.36
31281,-5.66
31294,-8.15
31308,13.68
31321,-6.05
31334,-7.92
31348,13.70
31361,-6.07
31374,-7.31
31388,12.67
31401,-4.01
31414,-7.58
31428,10.92
31441,-5.39
31454,-5.77
31468,12.64
31481,-5.82
31494,-7.08
31508,11.42
31521,-4.53
31534,-5.92
31548,10.99
31561,-5.53
31574,-5.96
31588,10.95
31601,-4.34
31614,-5.67
31628,9.81
31641,-4.54
31654,-6.09
31667,10.44
31681,-4.17
31694,-4.79
31707,8.82
31721,-4.27
31734,-4.49
31747,7.12
31761,-2.86
31774,-2.59
31787,5.47
31801,-2.84
31814,-2.35
31828,4.91
31841,-3.38
31854,-1.67
31868,4.48
31881,-1.65
31894,-1.16
31908,2.08
31921,-2.41
31934,-0.06
31948,2.50
31961,-1.52
31974,-0.08
31988,1.51
32001,-2.28
32014,0.12
32028,2.09
32041,-1.20
32054,-0.71
32068,1.46
32081,-1.51
32094,0.62
32108,1.85
32121,-2.58
32134,-0.29
32148,2.06
32161,-0.91
32174,-0.47
32188,1.45
32201,-1.68
32214,0.48
32227,1.83
32241,-2.51
32254,-0.06
32267,1.60
32281,-0.74
32294,0.07
32308,1.28
32321,-1.79
32334,0.04
32348,0.85
32361,-1.30
32374,1.18
32388,1.28
32401,-2.06
32414,0.14
32427,0.99
32441,-1.51
32454,0.84
32468,1.23
32481,-1.75
32494,0.46
32507,1.04
32521,-1.56
32534,-0.04
32548,1.83
32561,-1.15
32574,-0.62
32588,1.20
32601,-1.16
32614,0.49
32627,1.49
32641,-2.46
32654,0.38
32668,1.80
32681,-1.07
32694,-0.43
32708,1.11
32721,-1.36
32734,-0.22
32747,1.71
32761,-0.86
32774,-0.23
32788,1.21
32801,-1.38
32814,-0.38
32827,1.47
32841,-1.01
32854,-0.17
32868,1.44
32881,-1.17
32894,-0.32
32908,1.37
32921,-1.15
32934,-0.27
32947,1.42
32961,-1.13
32974,-0.26
32988,1.42
33001,-1.14
33014,-0.27
33027,1.41
33041,-1.30
33054,0.37
33068,0.74
33081,-1.52
33094,0.29
33107,2.00
33121,-1.31
33134,-0.90
33147,1.10
33161,-0.89
33174,0.18
33188,1.60
33201,-1.29
33214,-0.53
33227,1.28
33241,-1.11
33254,-0.16
33267,1.34
33281,-0.48
33294,-0.97
33308,0.85
33321,0.04
33334,-0.37
33347,0.71
33361,-0.56
33374,-0.67
33388,0.96
33401,-0.12
33414,-0.48
33428,0.81
33441,-0.37
33454,-0.62
33467,0.84
33481,-0.27
33494,-0.53
33508,0.87
33521,-0.29
33534,-0.56
33547,0.84
33561,-0.30
33574,-0.56
33588,0.85
33601,-0.29
33614,-0.56
33627,0.85
33641,-0.29
33654,-0.56
33668,0.85
33681,-0.29
33694,-0.56
33708,0.85
33721,-0.29
33734,-0.56
33748,0.70
33761,0.35
33774,-1.23
33787,0.47
33801,0.27
33814,0.03
33827,0.68
33841,-0.92
33854,-0.87
33868,1.11
33881,0.16
33894,-0.37
33908,0.70
33921,-0.55
33934,-0.69
33947,-0.66
33961,6.26
33974,-7.22
33987,-3.70
34001,8.48
34014,1.91
34027,-3.27
34041,-1.85
34054,-2.78
34067,1.11
34081,4.03
34094,0.19
34107,-0.78
34121,-0.73
34134,-1.39
34148,0.34
34161,0.80
34174,-0.57
34187,-0.51
34201,5.24
34214,-5.60
34227,-3.95
34241,10.06
34254,-2.89
34268,-5.07
34281,4.65
34294,-1.72
34308,-1.14
34321,3.15
34334,-1.99
34348,-1.50
34361,3.44
34374,-1.29
34387,-1.19
34401,2.22
34414,-2.16
34427,-0.34
34441,2.66
34454,-2.49
34468,-0.38
34481,3.09
34494,-1.39
34507,-1.21
34521,1.28
34534,-0.67
34548,-0.10
34561,1.09
34574,-1.44
34588,-0.15
34601,1.78
34614,-0.92
34628,-0.36
34641,1.17
34654,-1.31
34668,-0.28
34681,1.51
34694,-1.04
34708,-0.23
34721,1.56
34734,-1.81
34748,0.53
34761,1.28
34774,-1.68
34787,0.35
34801,0.92
34814,-1.62
34827,0.85
34841,1.29
34854,-1.76
34868,0.39
34881,0.98
34894,-1.70
34907,0.67
34921,1.21
34934,-1.67
34948,0.56
34961,1.09
34974,-1.73
34987,0.57
35001,0.97
35014,-1.05
35027,-0.09
35041,0.75
35054,-1.14
35068,1.17
35081,1.10
35094,-2.97
35108,0.94
35121,1.76
35134,-1.81
35147,0.18
35161,1.15
35174,-1.33
35188,0.76
35201,0.90
35214,-2.04
35227,0.47
35241,1.29
35254,-1.47
35267,0.68
35281,1.07
35294,-1.82
35307,-1.20
35321,8.19
35334,-9.09
35348,-3.56
35361,7.27
35374,4.92
35388,-1.97
35401,-5.11
35414,-4.78
35427,2.84
35441,5.47
35454,0.57
35467,-0.42
35481,-1.38
35494,-3.43
35507,-0.26
35521,5.34
35534,-4.04
35548,-0.85
35561,3.65
35574,1.51
35587,-1.30
35601,-2.71
35614,-2.07
35627,1.86
35641,2.75
35654,-0.11
35668,-0.53
35681,-0.45
35694,-1.84
35708,0.55
35721,2.24
35734,-1.38
35747,-0.16
35761,0.57
35774,-1.36
35788,1.26
35801,1.32
35814,-2.11
35827,0.07
35841,0.98
35854,-1.31
35868,0.25
35881,1.78
35894,-0.58
35908,-1.43
35921,0.73
35934,-0.46
35947,0.61
35961,1.23
35974,-1.20
35987,-1.42
36001,1.21
36014,-0.10
36027,0.58
36041,1.14
36054,-2.02
36067,-0.75
36081,1.67
36094,-0.60
36107,0.00
36121,1.29
36134,-1.41
36148,-0.43
36161,1.43
36174,-1.04
36187,-0.19
36201,1.28
36214,-0.51
36228,-0.97
36240,1.01
36254,-0.59
36267,0.32
36280,1.09
36294,-1.12
36307,-1.26
36321,1.29
36334,-0.13
36347,0.51
36361,1.09
36374,-2.02
36388,-0.72
36401,1.55
36415,0.06
36427,-0.67
36441,0.75
36454,-0.22
36467,-0.52
36481,0.87
36494,-1.11
36508,0.08
36521,1.36
36534,-0.69
36547,-1.09
36561,0.97
36574,0.09
36587,0.34
36601,-0.08
36614,-1.09
36628,-0.17
36641,1.75
36654,-0.85
36667,-0.38
36681,0.88
36694,-0.70
36707,-0.78
36721,1.19
36734,0.21
36747,-0.47
36761,0.64
36774,-1.34
36787,0.03
36801,1.61
36814,-1.22
36827,-0.37
36841,1.33
36854,-0.35
36868,-0.92
36881,0.75
36894,-0.08
36908,-0.40
36921,0.77
36934,-0.32
36947,-1.26
36961,1.63
36974,0.23
36987,-1.07
37001,0.21
37014,-0.20
37027,0.02
37041,1.17
37054,-0.51
37068,-1.13
37081,1.32
37094,-0.82
37107,-0.69
37121,1.53
37134,0.25
37148,-0.85
37161,0.14
37174,-0.62
37188,-0.43
37201,1.98
37214,-0.75
37227,-1.08
37241,1.15
37254,0.15
37268,-0.71
37281,0.33
37294,-0.53
37307,-0.28
37320,1.28
37334,-0.13
37348,-0.73
37361,0.59
37374,-0.27
37387,-1.17
37401,1.64
37414,0.17
37427,-1.10
37441,0.24
37454,-0.15
37467,0.05
37481,1.00
37494,0.10
37507,-1.68
37521,0.28
37534,0.42
37547,0.29
37561,0.81
37574,-0.95
37587,-0.98
37601,0.87
37614,0.78
37627,-1.03
37640,0.35
37654,0.03
37668,-0.10
37681,0.56
37694,-0.17
37707,-1.47
37720,0.74
37734,0.69
37747,0.18
37761,0.51
37774,-1.02
37787,-1.65
37801,1.82
37814,0.65
37827,-0.84
37841,-0.02
37854,0.25
37868,-0.77
37881,0.80
37894,0.11
37907,-0.34
37921,0.51
37934,-0.78
37948,-0.64
37961,1.22
37974,0.27
37988,-1.12
38001,1.30
38014,-0.03
38027,-1.87
38041,0.85
38054,1.04
38067,-1.08
38081,0.06
38094,0.95
38107,-1.00
38120,0.27
38134,1.37
38147,-1.97
38161,-0.12
38174,0.98
38187,-1.02
38200,1.34
38214,1.04
38227,-1.63
38241,-0.68
38254,0.61
38267,-0.86
38281,1.52
38294,1.10
38307,-2.39
38321,0.12
38334,1.27
38347,-1.28
38361,0.79
38374,1.01
38387,-1.93
38401,0.46
38414,1.16
38427,-1.60
38441,0.66
38454,1.13
38468,-1.57
38481,-0.10
38494,1.77
38507,-1.33
38521,0.03
38534,0.54
38547,-1.52
38561,1.37
38574,0.79
38587,-1.29
38601,0.51
38614,0.37
38627,-2.14
38641,1.01
38654,1.88
38667,-1.42
38681,0.22
38694,0.59
38708,-1.91
38721,0.75
38734,1.41
38747,-1.55
38761,0.55
38774,0.86
38787,-1.14
38801,-0.12
38814,0.76
38827,-0.96
38841,0.54
38854,1.63
38867,-1.79
38881,-0.94
38894,1.46
38907,-0.70
38921,0.84
38934,0.70
38947,-1.89
38961,-0.02
38974,1.80
38987,-0.52
39001,-1.40
39014,0.79
39027,-0.34
39041,0.71
39054,1.38
39068,-1.94
39081,-0.84
39094,1.39
39107,-0.00
39121,-0.64
39134,0.97
39147,-0.97
39161,0.80
39174,0.41
39188,-1.42
39201,-0.63
39214,1.89
39227,-0.32
39241,-0.14
39254,0.76
39267,-1.92
39281,0.38
39294,1.22
39307,-1.11
39321,0.30
39334,1.58
39347,-0.92
39361,-1.63
39374,0.66
39387,0.44
39401,0.15
39414,0.89
39427,-0.75
39441,-0.96
39454,0.81
39467,-0.08
39481,-0.37
39494,1.06
39507,-0.84
39521,-0.60
39534,1.87
39547,-0.46
39561,-1.69
39574,0.45
39587,0.52
39601,0.38
39614,1.06
39627,-1.64
39641,-0.52
39654,1.34
39667,-1.09
39681,-0.08
39694,1.50
39707,-0.36
39721,-1.02
39734,0.51
39747,0.54
39761,-1.06
39774,0.57
39787,-0.54
39801,0.65
39814,1.16
39828,-1.34
39841,-1.42
39854,1.22
39867,0.70
39881,-0.11
39894,0.45
39907,-0.96
39921,-0.85
39934,1.05
39947,0.08
39961,-0.35
39974,0.82
39987,-0.43
40001,-0.68
40014,0.81
40027,-0.27
40041,-0.52
40054,0.88
40067,-0.27
40081,-0.56
40094,0.85
40107,-0.30
40121,-0.72
40134,1.49
40147,-0.81
40161,-1.59
40174,2.08
40187,0.68
40201,-1.44
40214,0.28
40227,-1.10
40241,-0.06
40254,2.17
40267,0.23
40281,-1.33
40294,-0.22
40307,-0.59
40320,-0.01
40334,1.39
40347,0.59
40361,-1.47
40374,-0.04
40387,0.73
40401,-0.61
40414,0.43
40427,-0.26
40441,-0.25
40454,0.92
40467,-0.50
40481,-0.71
40494,0.79
40507,0.55
40521,-1.18
40534,0.36
40547,0.28
40561,-0.67
40574,1.41
40587,-0.45
40601,-1.38
40614,0.36
40627,0.94
40641,-0.45
40654,0.46
40667,0.40
40681,-1.22
40694,0.15
40707,-0.10
40721,0.05
40734,0.93
40747,0.12
40761,-1.50
40774,0.47
40787,0.43
40801,0.11
40814,0.60
40827,-1.04
40841,-0.91
40854,1.01
40867,0.88
40881,-1.00
40894,0.31
40907,0.13
40920,-0.78
40934,1.37
40947,-0.28
40960,-1.99
40974,1.07
40987,1.50
41001,-1.64
41014,0.70
41027,0.45
41041,-1.13
41054,0.77
41067,0.44
41081,-2.23
41094,1.09
41107,1.26
41121,-0.69
41134,0.77
41147,-0.64
41160,-1.86
41174,1.28
41187,1.48
41201,-1.65
41214,-0.01
41227,1.07
41241,0.04
41254,-0.25
41267,-1.38
41281,-0.27
41294,1.80
41307,1.11
41321,-2.25
41334,0.27
41347,1.10
41361,-1.66
41374,0.60
41387,1.20
41401,-1.57
41414,0.66
41427,1.08
41441,-1.82
41454,0.49
41467,0.96
41481,-1.00
41494,-0.04
41507,0.77
41521,-1.15
41534,1.15
41547,0.93
41560,-2.33
41574,0.26
41587,1.38
41600,-1.25
41614,0.77
41627,0.98
41641,-1.95
41654,0.60
41667,0.51
41681,-0.92
41694,1.04
41707,0.58
41721,-2.31
41734,0.72
41747,1.73
41760,-1.24
41774,-0.32
41787,1.35
41801,-1.35
41814,-0.47
41827,1.47
41841,-0.86
41854,-0.03
41867,1.26
41880,-0.69
41894,-1.14
41907,0.97
41921,-0.67
41934,1.07
41947,0.47
41961,-1.50
41974,-0.73
41987,1.84
42001,-0.33
42014,-0.13
42027,0.62
42041,-1.12
42054,-0.94
42067,1.52
42081,-0.17
42094,0.33
42107,0.82
42121,-1.37
42134,-1.32
42147,1.22
42160,0.63
42174,-0.11
42187,0.55
42201,-1.01
42214,-0.19
42227,0.46
42241,-1.19
42254,1.48
42267,1.28
42281,-2.14
42294,-0.62
42307,1.81
42321,-0.76
42334,-0.31
42347,1.20
42360,-1.20
42374,-0.16
42387,1.35
42400,-0.53
42414,-1.04
42427,0.98
42441,-0.55
42454,0.38
42467,1.27
42481,-1.77
42494,-0.61
42507,1.49
42521,-0.06
42534,-0.75
42547,0.89
42561,-0.83
42574,0.19
42587,1.12
42601,-1.17
42614,-0.53
42627,0.48
42641,0.11
42654,0.36
42667,1.12
42681,-1.00
42694,-1.43
42707,0.69
42720,0.25
42734,0.05
42747,1.02
42761,-0.54
42774,-0.90
42787,0.69
42801,-0.24
42814,-0.43
42827,0.95
42841,-0.26
42854,-0.58
42867,0.82
42881,-0.31
42894,-0.57
42907,0.85
42920,-0.29
42934,-0.56
42947,0.85
42960,-0.13
42974,-1.20
42987,1.53
43001,0.09
43014,-1.12
43027,0.26
43041,-0.12
43054,0.07
43067,1.16
43081,-0.54
43094,-1.01
43107,0.66
43120,-0.14
43134,-0.30
43147,0.98
43161,-0.33
43174,-0.67
43187,0.77
43200,-0.31
43214,-0.54
43227,0.88
43240,-0.27
43254,-0.55
43267,0.85
43281,-0.14
43294,-1.21
43307,1.52
43320,0.09
43334,-1.12
43347,0.26
43361,-0.12
43374,0.07
43387,1.17
43401,-0.54
43414,-1.16
43427,1.30
43440,-0.82
43454,-0.69
43467,1.54
43481,0.26
43494,-0.84
43507,0.14
43520,-0.47
43534,-0.93
43547,2.00
43560,0.30
43574,-1.26
43587,0.01
43601,-0.10
43614,-0.55
43628,1.94
43641,-0.24
43654,-0.90
43667,-0.62
43681,-0.38
43694,0.86
43707,1.88
43720,-0.75
43734,-1.74
43747,0.12
43760,0.74
43774,-0.35
43787,0.18
43801,0.93
43814,-0.59
43827,0.58
43840,-1.12
43854,-1.14
43867,1.25
43880,0.84
43894,-0.66
43907,1.21
43920,-0.48
43934,-2.21
43947,1.04
43960,0.66
43974,-0.18
43987,0.47
44001,0.29
44014,-1.86
44027,1.19
44041,0.54
44054,-0.68
44067,0.07
44081,-0.45
44094,-0.74
44107,2.14
44120,0.38
44134,-2.11
44147,0.39
44160,0.80
44174,-1.02
44187,0.24
44201,1.07
44214,-1.14
44227,0.88
44241,0.66
44254,-2.37
44267,0.43
44281,1.41
44294,-0.54
44307,0.04
44320,0.50
44334,-1.45
44347,1.03
44360,1.01
44374,-2.19
44387,0.36
44401,1.40
44414,-1.28
44427,0.73
44440,0.95
44454,-1.97
44467,0.45
44480,1.16
44494,-1.59
44507,0.67
44520,1.14
44534,-1.72
44547,0.55
44561,1.10
44574,-1.71
44587,0.58
44601,1.12
44614,-1.70
44627,0.59
44641,0.97
44654,-0.90
44667,-0.74
44681,1.41
44694,-0.61
44707,-0.04
44721,0.88
44734,-1.13
44747,-0.34
44760,0.73
44774,-0.78
44791,1.54
44800,0.92
44814,-2.54
44827,-0.71
44840,2.03
44854,-0.65
44867,0.44
44880,0.61
44894,-2.50
44907,1.63
44920,1.78
44934,-2.41
44947,-0.34
44960,1.16
44974,-0.93
44987,1.13
45000,0.97
45014,-2.20
45027,0.28
45041,1.19
45054,-1.46
45067,0.74
45080,1.12
45094,-1.63
45107,-0.13
45120,1.78
45134,-1.15
45147,-0.60
45160,1.22
45174,-0.99
45187,-0.15
45201,2.16
45214,-1.93
45227,-0.82
45241,1.89
45254,-0.51
45267,-0.36
45281,0.68
45294,-0.81
45307,-0.71
45320,1.30
45334,0.08
45347,0.14
45361,-0.07
45374,-1.72
45387,0.60
45401,2.04
45414,-0.77
45427,-1.68
45440,0.65
45454,0.48
45467,0.13
45481,0.77
45494,-1.02
45507,-0.33
45520,0.37
45534,-1.02
45547,0.91
45560,2.01
45574,-1.76
45587,-1.21
45601,1.19
45614,-0.61
45627,0.31
45640,1.52
45654,-1.44
45668,-0.60
45681,1.32
45694,-1.18
45707,0.53
45720,0.82
45734,-1.53
45747,0.24
45760,1.95
45774,-1.34
45787,-0.90
45801,0.95
45814,-0.23
45827,-0.49
45840,1.07
45854,-0.09
45868,-0.62
45881,0.57
45894,-0.53
45907,-0.57
45920,1.19
45934,-0.74
45947,0.17
45960,1.16
45974,-0.95
45987,-1.21
46000,1.02
46014,0.37
46027,-0.22
46040,0.61
46054,-0.58
46067,-1.40
46081,1.67
46094,0.34
46107,-0.99
46120,0.23
46134,-0.23
46147,-0.01
46160,1.15
46174,-0.52
46187,-0.98
46201,0.68
46214,-0.13
46227,-0.31
46240,0.98
46254,-0.33
46267,-0.67
46281,0.77
46294,-0.31
46307,-0.54
46320,0.88
46334,-0.27
46347,-0.55
46360,0.85
46374,-0.30
46387,-0.57
46400,0.84
46414,-0.29
46427,-0.56
46441,0.85
46454,-0.13
46467,-1.20
46481,1.53
46494,0.09
46507,-1.12
46520,0.26
46534,-0.12
46547,0.06
46560,1.16
46574,-0.55
46587,-1.01
46601,0.66
46614,-0.14
46627,-0.30
46640,0.98
46654,-0.32
46667,-0.67
46680,0.77
46694,-0.31
46707,-0.54
46720,0.88
46734,-0.27
46747,-0.55
46760,0.85
46774,-0.14
46787,-1.21
46801,1.52
46814,0.09
46827,-1.12
46840,0.26
46854,-0.12
46867,0.07
46880,1.17
46894,-0.54
46907,-1.01
46920,0.66
46934,-0.14
46947,-0.31
46960,1.14
46974,-0.81
46987,-0.64
47000,1.83
47014,-0.49
47027,-1.68
47040,0.47
47054,0.53
47067,0.39
47080,0.90
47094,-0.85
47107,-1.85
47120,1.48
47134,0.49
47147,-0.73
47160,0.36
47174,-0.10
47187,-0.76
47200,1.74
47214,-0.16
47227,-1.51
47240,0.12
47254,0.06
47267,0.33
47280,1.14
47294,0.21
47307,-2.44
47320,0.87
47334,0.93
47347,-0.90
47360,0.93
47374,-0.22
47387,-1.54
47400,1.28
47414,1.23
47427,-2.05
47440,0.56
47454,0.63
47467,-0.87
47480,0.90
47494,0.24
47507,-1.70
47520,0.18
47534,1.50
47547,-0.78
47560,0.85
47574,0.41
47587,-2.57
47600,0.42
47614,1.67
47627,-1.09
47641,0.75
47654,0.87
47667,-2.04
47680,0.57
47694,0.52
47707,-0.89
47720,1.06
47734,0.59
47747,-2.31
47761,0.88
47774,1.08
47787,-0.72
47800,0.70
47814,0.12
47827,-2.47
47841,0.90
47854,2.01
47867,-1.25
47880,0.29
47894,0.57
47907,-1.97
47920,0.70
47934,1.39
47947,-1.54
47961,0.57
47974,0.87
47987,-1.14
48000,-0.12
48014,0.76
48027,-1.12
48040,1.18
48054,0.95
48067,-2.33
48080,0.26
48094,1.37
48107,-1.25
48120,0.77
48133,0.97
48147,-1.80
48160,-0.20
48174,1.83
48187,-1.06
48200,-0.54
48214,1.23
48227,-1.17
48240,0.62
48254,0.83
48267,-1.64
48280,0.12
48294,1.92
48307,-1.42
48320,-0.16
48334,0.48
48347,-1.41
48360,1.51
48374,0.69
48387,-0.54
48401,-0.90
48414,0.46
48427,-0.56
48440,0.40
48453,0.62
48467,-0.66
48480,0.44
48494,0.45
48507,-1.00
48520,-0.56
48534,1.44
48547,-0.74
48561,-0.06
48574,1.20
48587,-1.44
48601,-0.30
48614,1.62
48627,-0.96
48640,-0.30
48654,1.10
48667,-0.62
48680,-0.94
48694,1.12
48707,-0.50
48720,0.34
48734,1.21
48747,-1.81
48760,-0.61
48774,1.50
48787,-0.04
48801,-0.74
48814,0.89
48827,-0.83
48840,0.18
48854,1.27
48867,-1.82
48880,0.14
48894,1.01
48907,-1.09
48920,0.45
48933,1.83
48947,-1.58
48961,-1.03
48974,0.98
48987,-0.13
49000,-0.41
49014,1.24
49027,-0.75
49040,0.03
49054,1.08
49067,-1.74
49080,-0.48
49094,1.60
49107,-0.02
49120,-0.77
49134,0.86
49147,-0.86
49160,0.18
49174,1.12
49187,-1.01
49201,-1.18
49214,1.31
49227,-0.15
49240,0.48
49254,0.92
49267,-1.39
49280,-1.39
49294,1.17
49307,0.47
49320,0.56
49334,0.06
49347,-1.87
49361,0.40
49374,1.94
49387,-0.75
49400,-1.62
49414,0.69
49427,0.65
49440,-0.52
49453,1.44
49467,-0.33
49480,-2.18
49494,0.97
49507,0.56
49520,-0.25
49534,0.62
49547,-0.47
49560,-0.64
49574,1.57
49587,-1.07
49601,-1.11
49614,1.37
49627,0.42
49640,-0.58
49654,0.28
49667,-0.66
49680,-0.39
49694,1.25
49707,-0.10
49720,-0.68
49734,0.62
49747,-0.41
49760,-0.68
49774,1.60
49787,-0.89
49801,-0.93
49814,1.38
49827,0.42
49840,-1.40
49854,0.89
49868,-0.22
49881,-0.85
49894,0.87
49907,-0.41
49920,-0.05
49934,1.96
49947,-0.86
49961,-2.12
49974,0.35
49987,0.74
50001,0.66
50014,1.02
50027,-1.06
50041,-1.33
50054,0.72
50067,0.25
50080,-0.79
50094,1.66
50107,-0.03
50120,-1.30
50134,0.01
50147,0.68
50160,-1.21
50174,1.50
50187,0.41
50201,-0.98
50214,-0.11
50227,-0.45
50241,-0.64
50254,2.23
50267,0.40
50281,-2.13
50294,0.52
50307,0.29
50320,-0.99
50334,1.45
50347,0.26
50361,-1.60
50374,1.00
50387,0.11
50401,-0.70
50414,0.53
50427,-0.09
50440,-0.87
50454,1.71
50467,0.08
50481,-2.19
50494,1.48
50507,-0.30
50520,-0.69
50534,1.21
50547,0.17
50561,-0.64
50574,0.29
50587,-0.56
50601,-1.12
50614,1.79
50627,1.21
50640,-2.43
50654,0.20
50667,1.43
50680,-1.28
50694,0.75
50707,0.17
50720,-1.26
50734,1.00
50747,0.76
50761,-2.14
50774,0.76
50787,1.66
50801,-1.47
50814,0.29
50827,0.68
50840,-1.87
50854,0.75
50867,1.39
50880,-1.56
50894,0.54
50907,1.01
50920,-1.79
50934,0.71
50947,0.50
50961,-1.00
50974,0.98
50987,0.57
51001,-2.29
51014,0.75
51027,1.74
51040,-1.39
51054,0.32
51067,0.51
51080,-1.25
51094,0.05
51107,1.00
51121,-1.01
51134,1.14
51147,0.84
51161,-2.41
51174,0.24
51187,1.40
51201,-1.22
51214,0.79
51227,0.98
51240,-1.96
51254,0.44
51267,1.15
51281,-1.60
51294,0.81
51307,0.49
51320,-1.05
51334,0.93
51347,0.55
51361,-2.29
51374,0.76
51387,1.75
51401,-1.38
51414,0.33
51427,0.67
51440,-1.89
51454,0.73
51467,1.38
51480,-1.41
51494,-0.10
51507,1.69
51520,-1.40
51534,0.00
51547,0.56
51560,-1.50
51573,1.23
51587,1.44
51601,-1.96
51614,0.12
51627,0.92
51640,-1.56
51654,0.83
51667,1.25
51681,-1.73
51694,0.47
51707,1.04
51720,-1.72
51734,0.60
51747,1.00
51760,-1.04
51774,-0.09
51787,0.74
51801,-1.15
51814,1.16
51827,0.94
51840,-2.33
51853,0.27
51867,1.22
51880,-0.45
51894,-0.55
51907,1.11
51920,-0.22
51933,-0.84
51947,0.69
51960,-1.11
51974,1.00
51987,0.95
52001,-1.83
52014,-0.04
52027,2.01
52040,-1.09
52054,-0.75
52067,1.04
52080,-1.02
52094,0.10
52107,1.48
52120,-0.73
52134,-0.51
52147,0.23
52160,-0.95
52174,0.96
52187,1.74
52201,-1.28
52214,-1.90
52227,0.95
52240,0.11
52254,0.95
52267,1.13
52280,-1.52
52294,-1.65
52307,1.19
52320,0.01
52334,0.70
52347,1.19
52360,-2.03
52374,-0.77
52387,1.65
52401,-0.61
52414,-0.01
52427,1.29
52441,-1.41
52454,-0.42
52467,1.43
52480,-1.04
52494,-0.19
52507,1.43
52521,-1.16
52534,-0.30
52547,1.39
52560,-1.15
52574,-0.27
52587,1.42
52600,-1.13
52614,-0.27
52627,1.26
52641,-0.50
52654,-0.95
52667,1.03
52680,-0.58
52694,0.31
52707,1.39
52721,-2.26
52734,-0.55
52747,2.72
52760,-0.71
52774,-1.87
52787,1.37
52800,0.58
52814,-1.34
52827,1.05
52841,0.02
52854,-1.00
52867,1.05
52880,-0.94
52894,-0.67
52907,2.52
52921,-1.11
52934,-0.74
52947,0.97
52960,-0.38
52974,-1.56
52987,1.62
53000,0.75
53014,-1.39
53027,0.83
53041,0.02
53054,-1.43
53067,1.27
53080,0.22
53093,-0.75
53107,0.59
53120,-0.93
53133,0.47
53147,1.44
53160,-0.99
53174,-1.43
53187,0.90
53200,0.44
53213,0.08
53227,0.03
53240,-0.10
53254,-0.45
53267,0.39
53280,-0.63
53294,-0.23
53307,1.62
53320,-0.56
53334,-0.86
53347,1.43
53360,-0.49
53374,-2.17
53387,1.39
53400,1.03
53414,-0.21
53427,0.21
53441,-0.75
53454,-1.24
53467,1.82
53480,0.42
53494,-1.80
53507,0.86
53520,0.27
53534,-0.43
53547,0.61
53560,-0.41
53574,-0.44
53587,0.79
53601,0.25
53614,-1.40
53627,0.44
53640,0.39
53653,0.02
53667,1.37
53680,-1.65
53694,-1.35
53707,1.61
53720,0.90
53734,-1.15
53747,0.78
53760,-0.31
53774,-1.64
53787,1.41
53800,0.71
53814,-1.21
53827,1.01
53840,-0.15
53854,-0.93
53867,0.48
53880,0.01
53894,-0.75
53907,1.92
53920,-0.57
53934,-1.41
53947,1.17
53960,-0.20
53974,-1.06
53987,1.33
54000,0.19
54013,-1.20
54027,0.84
54040,0.29
54053,-0.35
54067,-0.48
54080,-0.02
54093,-0.60
54107,1.69
54120,0.13
54133,-1.56
54147,0.29
54160,1.53
54174,-1.08
54187,-0.62
54200,-0.23
54213,-0.02
54227,2.19
54240,0.69
54254,-3.94
54267,0.69
54280,2.28
54294,-1.30
54307,0.31
54320,-0.02
54334,-0.26
54347,0.67
54360,-0.48
54373,-1.26
54387,1.76
54400,0.45
54414,-1.76
54427,0.65
54440,0.96
54454,-1.80
54467,0.78
54480,1.56
54494,-2.32
54507,1.01
54520,1.25
54533,-2.28
54547,0.16
54560,1.32
54574,-0.37
54587,0.31
54600,-0.26
54614,-0.98
54627,1.51
54640,-0.23
54653,-1.31
54667,0.30
54680,1.04
54694,-1.08
54707,1.19
54720,0.95
54734,-2.60
54747,0.85
54760,-0.08
54774,-0.90
54787,1.90
54800,1.17
54814,-2.53
54827,-0.74
54840,2.03
54854,-0.55
54867,-0.35
54880,1.00
54894,-1.47
54907,0.53
54920,0.80
54934,-0.83
54947,-0.49
54960,1.51
54974,-0.78
54987,-0.11
55000,0.17
55014,-0.33
55027,0.21
55040,0.39
55054,-1.90
55067,1.65
55080,2.55
55094,-2.41
55107,-2.08
55120,1.20
55133,0.13
55147,0.73
55160,1.93
55173,-1.93
55187,-1.82
55200,0.71
55213,1.48
55227,0.80
55240,-1.06
55253,-1.92
55267,0.21
55280,2.72
55294,-0.59
55307,-0.18
55320,-0.48
55334,-1.37
55347,-0.01
55360,2.31
55374,-0.39
55387,-0.44
55400,0.57
55414,-1.76
55427,-0.15
55440,1.83
55454,-0.07
55467,-0.95
55480,0.74
55494,-0.84
55507,0.26
55520,1.34
55534,-1.49
55547,-1.16
55560,2.34
55574,-0.35
55587,-0.67
55600,0.66
55614,-1.38
55627,0.87
55640,0.94
55653,-1.02
55667,-0.75
55680,1.29
55694,0.17
55707,-1.40
55720,1.18
55734,0.03
55747,-0.89
55760,0.64
55774,-0.75
55787,0.75
55800,1.07
55814,-1.74
55827,0.19
55840,1.11
55854,-1.18
55867,-1.00
55880,1.83
55894,0.13
55907,0.18
55920,0.33
55934,-1.69
55947,-1.06
55960,0.93
55974,1.57
55987,0.30
56000,-0.01
56014,-2.25
56027,-0.06
56040,2.16
56054,-0.84
56067,-0.52
56080,0.96
56094,-0.51
56107,-0.78
56120,0.99
56134,0.03
56147,-0.45
56160,0.65
56174,-0.56
56187,-0.48
56200,0.34
56214,0.57
56227,-0.10
56240,0.25
56254,-0.97
56267,-0.45
56280,1.47
56294,0.05
56307,-0.63
56320,-0.22
56334,0.20
56347,-0.04
56360,0.54
56374,-0.75
56387,-0.43
56400,1.37
56414,-0.21
56427,-0.19
56440,-0.25
56454,-0.83
56467,0.17
56480,1.70
56494,-0.33
56507,-1.23
56520,0.42
56534,-0.12
56547,-0.13
56560,1.06
56574,-0.41
56587,-0.79
56600,0.73
56614,-0.26
56627,-0.46
56640,0.77
56653,0.37
56667,-1.26
56680,0.44
56694,0.25
56707,0.02
56720,0.68
56733,-0.91
56747,-0.87
56760,1.11
56774,0.16
56787,-0.37
56800,0.70
56814,-0.55
56827,-0.70
56840,0.88
56854,-0.18
56867,-0.48
56880,0.87
56894,-0.31
56907,-0.59
56920,0.83
56934,-0.30
56947,-0.56
56960,0.86
56974,-0.29
56987,-0.56
57000,0.70
57014,0.36
57027,-1.23
57040,0.47
57053,0.26
57067,0.02
57080,0.68
57094,-0.92
57107,-0.87
57120,1.11
57133,0.16
57147,-0.37
57160,0.39
57174,0.74
57187,-2.04
57200,0.12
57214,0.93
57227,0.69
57240,0.52
57254,-1.56
57267,-1.22
57280,1.34
57293,0.75
57307,-0.82
57320,1.23
57334,-0.42
57347,-1.38
57360,0.49
57374,-0.54
57387,0.90
57400,1.43
57414,-0.50
57427,-2.33
57440,0.41
57454,1.03
57467,0.60
57480,0.41
57494,-0.74
57507,-1.84
57520,0.80
57534,0.95
57547,0.37
57560,0.37
57574,-0.47
57587,-2.56
57600,1.90
57614,1.19
57627,-1.29
57640,0.00
57654,0.77
57667,-0.67
57680,0.09
57693,0.26
57707,-0.88
57720,0.53
57734,0.95
57747,-1.47
57760,0.82
57774,0.95
57787,-2.10
57800,0.42
57814,1.18
57827,-0.74
57840,0.02
57853,0.46
57867,-0.69
57880,0.40
57893,0.60
57907,-1.69
57920,0.91
57934,1.21
57947,-1.90
57960,0.43
57974,1.06
57987,-0.87
58000,-0.03
58013,0.48
58027,-0.65
58040,0.29
58054,1.27
58067,-2.36
58080,0.52
58093,1.76
58106,-1.32
58120,0.25
58133,0.59
58147,-1.82
58160,0.90
58173,1.31
58187,-1.01
58200,-0.29
58213,0.38
58227,-0.55
58240,0.57
58254,0.67
58267,-1.57
58280,0.20
58294,1.69
58307,-0.89
58320,-0.79
58333,0.11
58347,-0.13
58360,1.18
58374,0.62
58387,-1.53
58400,-0.32
58414,0.69
58427,-1.09
58440,1.35
58454,1.03
58467,-1.40
58480,-1.13
58494,1.31
58507,0.32
58520,-0.54
58533,0.44
58547,-0.56
58560,-0.47
58573,1.10
58587,-0.31
58600,0.03
58613,0.06
58627,-0.74
58640,-0.00
58654,1.47
58667,-0.43
58680,-1.18
58694,0.69
58707,-0.68
58720,0.56
58733,1.42
58747,-1.00
58760,-1.40
58774,0.89
58787,0.37
58800,-0.14
58813,0.68
58827,-0.72
58840,-0.77
58853,1.12
58867,-0.70
58880,0.24
58894,1.20
58907,-0.95
58920,-1.22
58933,1.01
58947,0.36
58960,-0.22
58974,0.61
58987,-0.73
59000,-0.76
59014,0.99
59027,-0.04
59040,-0.43
59053,0.82
59067,-0.40
59080,-0.64
59094,0.83
59107,-0.27
59120,-0.53
59133,0.87
59146,-0.13
59160,-1.21
59173,1.52
59187,0.08
59200,-1.12
59213,0.26
59227,-0.12
59240,0.07
59253,1.17
59267,-0.54
59280,-1.16
59293,1.31
59307,-0.82
59320,-0.69
59333,1.54
59347,0.26
59360,-0.84
59374,0.14
59387,-0.62
59400,-0.28
59413,1.33
59427,-0.08
59441,-0.70
59453,0.59
59467,-0.43
59480,-0.53
59494,0.95
59507,-0.21
59520,-0.54
59533,0.83
59547,-0.32
59560,-0.58
59573,1.00
59587,-0.93
59600,0.12
59613,1.23
59627,-0.84
59640,-1.15
59653,1.02
59667,0.18
59680,0.40
59694,-0.08
59707,-1.12
59720,-0.20
59733,1.74
59747,-0.85
59760,-0.38
59773,0.88
59787,-0.70
59800,-0.62
59814,0.55
59827,0.88
59840,-0.09
59853,-0.08
59867,-1.13
59880,-1.27
59894,3.02
59907,-0.00
59920,-1.65
59933,0.31
59947,0.15
59960,-0.05
59973,0.78
59987,-0.70
60000,-0.75
60014,1.03
60027,-0.02
60040,-0.47
60053,0.74
60067,-0.44
60080,-0.62
60093,0.88
60107,-0.23
60120,-0.52
60133,0.86
60147,-0.30
60160,-0.57
60173,0.84
60187,-0.29
60200,-0.56
60214,0.85
60227,-0.29
60240,-0.56
60253,0.70
60267,0.36
60280,-1.23
60293,0.47
60307,0.27
60320,0.03
60333,0.52
60347,-0.27
60360,-1.55
60373,0.73
60387,0.72
60400,0.22
60413,0.53
60427,-1.02
60440,-1.65
60453,1.66
60467,1.44
60480,-2.16
60493,0.43
60507,0.54
60520,-0.07
60533,0.26
60547,-0.26
60560,-1.29
60573,0.88
60587,0.75
60600,-0.65
60613,0.97
60627,0.11
60640,-2.73
60653,0.75
60667,1.97
60680,-0.39
60694,-0.16
60707,-0.56
60720,-0.89
60733,1.62
60747,0.72
60760,-2.67
60773,0.63
60787,1.10
60800,0.27
60813,0.32
60827,-1.05
60840,-1.63
60853,2.40
60867,0.65
60880,-2.74
60893,0.78
60907,1.89
60920,-0.76
60934,-0.69
60947,0.09
60960,-1.18
60974,1.62
60987,1.33
61000,-2.31
61013,0.04
61027,1.18
61040,-1.29
61053,0.85
61067,0.90
61080,-1.28
61093,-0.24
61107,0.75
61120,-1.05
61133,1.24
61147,0.97
61160,-2.35
61173,0.24
61187,1.36
61200,-1.10
61213,0.13
61227,1.65
61240,-1.57
61253,-0.11
61267,0.57
61280,-1.42
61293,1.29
61307,1.45
61320,-1.98
61333,0.10
61347,0.75
61360,-0.76
61373,-0.48
61387,1.56
61400,-0.79
61413,0.51
61427,0.13
61440,-1.53
61453,0.24
61467,1.34
61480,-0.93
61493,0.91
61507,0.61
61520,-2.44
61533,0.38
61546,1.54
61560,-1.02
61573,0.10
61587,1.58
61600,-1.62
61613,-0.12
61627,0.58
61640,-1.25
61653,0.81
61667,1.33
61680,-0.13
61693,-1.40
61707,0.06
61720,-1.04
61733,1.67
61747,1.29
61760,-1.48
61773,-0.59
61787,0.59
61800,-0.86
61814,0.54
61827,2.35
61840,-2.46
61853,-1.33
61867,1.84
61880,0.65
61893,-0.68
61907,0.36
61920,-1.25
61933,0.29
61947,1.50
61960,-0.93
61974,-0.60
61987,0.43
62000,-0.82
62013,1.68
62027,0.90
62040,-1.88
62053,-1.44
62067,1.43
62080,0.69
62094,-0.27
62107,0.45
62120,-0.73
62133,-0.64
62147,1.03
62160,-0.13
62174,-0.39
62187,0.14
62200,0.34
62213,-0.17
62227,0.48
62240,-1.50
62253,0.29
62267,1.85
62280,-0.54
62293,-1.41
62307,0.57
62320,0.15
62333,-0.09
62347,0.85
62360,-0.60
62374,-0.79
62387,0.89
62400,-0.12
62413,-0.45
62427,0.99
62440,-1.01
62453,0.06
62467,1.06
62480,-0.18
62493,-1.80
62507,0.66
62520,0.90
62533,0.34
62547,0.41
62560,-1.37
62573,-1.07
62587,1.26
62600,0.42
62613,-0.39
62627,1.31
62640,-1.33
62653,-1.15
62667,1.58
62680,-0.22
62693,0.05
62707,0.64
62720,-1.17
62733,-0.92
62747,1.45
62760,0.67
62773,-1.04
62787,1.02
62800,-0.49
62813,-1.27
62827,0.68
62840,-0.42
62853,0.90
62867,1.49
62880,-1.24
62893,-1.55
62907,0.16
62920,1.18
62933,0.43
62947,0.20
62960,-1.35
62973,-0.68
62987,1.54
63000,0.25
63013,-0.67
63027,0.39
63040,-0.57
63053,-0.49
63067,1.09
63080,-0.14
63093,-0.57
63106,0.76
63120,-0.36
63133,-0.58
63147,0.86
63160,-0.27
63173,-0.54
63187,0.86
63200,-0.29
63213,-0.56
63226,0.85
63240,-0.29
63253,-0.56
63266,0.85
63280,-0.29
63293,-0.56
63307,0.85
63320,-0.29
63333,-0.56
63347,0.70
63360,0.35
63373,-1.24
63387,0.47
63400,0.27
63413,0.03
63427,0.68
63440,-0.92
63453,-0.87
63467,1.11
63480,0.31
63493,-1.01
63507,1.22
63520,0.63
63533,-2.57
63547,0.59
63560,0.93
63573,0.33
63587,-0.22
63600,-0.19
63613,-0.99
63627,1.33
63640,-0.16
63653,-0.94
63667,0.54
63680,0.70
63693,-0.85
63707,0.27
63720,0.52
63733,-0.95
63747,0.33
63760,-0.10
63773,-0.07
63787,0.81
63800,0.07
63813,-1.48
63827,0.52
63840,0.62
63853,-0.52
63867,1.12
63880,-0.02
63893,-2.16
63907,0.19
63920,1.12
63933,0.24
63947,1.51
63960,-1.08
63973,-2.04
63987,0.20
64000,1.23
64013,-0.07
64027,0.64
64040,0.50
64053,-2.01
64067,0.71
64080,0.40
64093,-1.13
64107,1.21
64120,0.21
64133,-1.38
64147,1.11
64160,0.97
64173,-2.18
64187,0.44
64200,1.38
64213,-1.46
64227,0.54
64240,0.93
64253,-1.79
64267,0.66
64280,1.25
64293,-1.50
64307,-0.12
64320,1.56
64333,-0.72
64347,-0.64
64360,0.19
64373,-0.94
64387,1.81
64400,1.26
64413,-2.59
64427,-0.19
64440,1.18
64453,-1.11
64466,1.03
64480,0.96
64493,-1.34
64507,-0.33
64520,0.54
64533,-0.41
64547,0.59
64560,0.61
64573,-1.77
64587,0.98
64600,0.38
64613,-0.57
64627,0.16
64640,0.29
64653,-1.53
64666,1.40
64680,1.46
64693,-2.16
64707,-0.04
64720,0.98
64733,-1.36
64747,0.97
64760,1.22
64773,-1.85
64787,0.38
64800,1.03
64813,-1.67
64827,0.65
64840,1.17
64853,-1.69
64866,0.57
64880,0.95
64893,-0.91
64907,-0.75
64920,1.26
64933,-0.12
64947,-0.06
64960,-0.02
64973,-1.44
64986,0.84
65000,2.19
65013,-1.75
65027,-0.55
65040,0.45
65053,-1.19
65067,1.52
65080,1.45
65093,-2.14
65107,-0.03
65120,0.90
65133,-1.33
65147,0.26
65160,1.96
65173,-1.36
65187,-0.11
65200,0.44
65213,-1.40
65227,0.58
65240,1.99
65253,-0.75
65267,-1.73
65280,0.48
65293,0.35
65307,0.17
65320,1.10
65333,-1.36
65347,-0.43
65360,1.98
65373,-2.13
65386,0.13
65400,0.69
65413,0.61
65427,-0.14
65440,0.14
65453,-1.18
65466,-0.62
65480,1.67
65493,-0.51
65506,0.75
65520,0.15
65533,-1.71
65547,0.03
65560,1.11
65573,-0.05
65586,-0.27
65600,1.13
65613,-2.01
65627,0.39
65640,1.64
65653,-1.02
65666,-1.39
65680,1.23
65693,0.74
65707,-0.17
65720,0.42
65733,-1.91
65747,0.49
65760,0.92
65773,-0.71
65786,-0.35
65800,1.66
65813,-0.72
65827,-0.36
65840,0.78
65853,-1.79
65866,0.50
65880,1.11
65893,-0.47
65906,-0.56
65920,1.82
65933,-1.05
65947,-1.43
65960,1.19
65973,-0.25
65986,0.34
66000,0.90
66013,-1.01
66027,-1.74
66042,1.96
66053,0.85
66066,-0.90
66080,-0.17
66093,-0.65
66106,0.07
66120,0.76
66133,0.45
66147,-0.49
66160,0.04
66173,-0.87
66187,-0.39
66200,2.23
66213,-0.66
66226,-1.26
66240,0.91
66253,0.26
66267,-1.21
66280,1.18
66293,-0.08
66306,-0.89
66320,0.75
66333,-0.50
66347,-0.23
66360,2.78
66373,-2.30
66387,-1.31
66400,1.27
66413,-0.29
66426,0.07
66440,1.70
66453,-0.34
66467,-1.56
66480,0.13
66493,-0.86
66507,0.90
66520,1.90
66533,-0.80
66547,-1.56
66560,0.61
66573,0.36
66587,-0.61
66600,0.81
66613,0.43
66626,-0.76
66640,-0.83
66653,0.18
66667,0.72
66680,1.35
66693,-1.57
66707,-0.49
66720,1.21
66733,-0.55
66746,-1.12
66760,1.79
66773,-1.06
66787,0.05
66800,1.59
66813,-0.69
66827,-1.55
66840,0.64
66853,-0.39
66867,0.68
66880,2.06
66893,-1.86
66907,-1.94
66920,1.45
66933,1.06
66946,-0.39
66960,0.70
66973,-1.75
66987,-0.94
67000,1.96
67013,0.73
67027,-0.58
67040,-0.70
67053,-0.16
67067,0.03
67080,0.83
67093,-0.59
67106,-0.49
67120,1.22
67133,0.02
67147,-1.45
67160,1.17
67173,-0.03
67187,-0.95
67200,0.35
67213,0.64
67227,-0.66
67240,0.67
67253,-0.07
67266,-0.28
67280,-0.13
67293,-0.06
67307,-0.22
67320,0.69
67333,-0.31
67347,-0.95
67360,1.92
67373,0.28
67387,-2.29
67400,1.04
67413,0.32
67427,-1.95
67440,1.55
67453,1.90
67467,-1.27
67480,-0.93
67493,-0.70
67507,0.38
67520,1.51
67533,0.42
67547,-2.42
67560,0.87
67573,0.80
67587,-0.27
67600,0.16
67613,-0.85
67627,-0.37
67640,1.55
67653,-0.69
67666,-0.09
67680,0.76
67693,-0.17
67707,-2.52
67720,2.12
67733,0.82
67746,-1.27
67760,0.85
67773,0.38
67787,-1.69
67800,-0.66
67813,1.42
67827,0.53
67840,1.19
67853,-1.25
67866,-2.46
67880,1.52
67893,1.13
67907,-0.26
67920,-0.13
67933,0.48
67947,-1.82
67960,0.41
67973,1.07
67986,-0.17
68000,1.06
68013,-0.98
68027,-2.43
68040,2.15
68053,0.61
68067,-1.20
68080,1.32
68093,0.73
68106,-2.03
68120,-0.68
68133,0.89
68146,0.20
68160,0.88
68173,0.28
68186,-1.48
68200,0.12
68213,0.03
68227,0.11
68240,0.84
68253,0.14
68266,-2.19
68280,0.91
68293,2.36
68306,-2.39
68320,-0.23
68333,1.39
68347,-1.03
68360,0.66
68373,0.63
68386,-1.90
68400,-0.07
68413,2.82
68426,-1.80
68440,-0.47
68453,0.86
68466,-0.92
68480,0.42
68493,1.43
68506,-1.17
68520,-0.82
68533,0.24
68546,-0.02
68560,1.21
68573,0.75
68586,-2.19
68600,0.49
68613,0.25
68627,-0.35
68640,0.31
68653,0.93
68666,-1.61
68680,0.06
68693,2.03
68706,-1.07
68720,-0.51
68733,-0.41
68746,0.19
68760,1.04
68773,0.20
68786,-2.19
68800,1.12
68813,1.78
68826,-1.59
68840,-0.63
68853,1.39
68867,-1.09
68880,-0.29
68893,1.45
68906,-1.14
68920,0.53
68933,0.74
68947,-1.66
68960,-0.02
68973,2.59
68986,-1.93
69000,-1.34
69013,2.36
69027,-1.12
69040,0.25
69053,0.67
69066,-0.92
69080,0.08
69093,0.63
69107,-1.38
69120,1.11
69133,1.12
69147,-1.98
69160,-0.18
69173,1.31
69187,-0.31
69200,0.71
69213,-0.79
69226,-1.65
69240,1.65
69253,1.39
69267,-1.49
69280,-0.56
69293,0.74
69306,-0.74
69320,0.64
69333,1.54
69346,-1.89
69360,-0.92
69373,1.39
69387,0.14
69400,-0.51
69413,0.94
69426,-0.98
69440,0.17
69453,0.42
69466,-0.28
69480,-0.71
69493,0.65
69507,-0.10
69520,-0.06
69533,1.13
69546,-0.53
69560,-1.06
69573,0.56
69587,-0.34
69600,0.40
69613,0.42
69626,-0.64
69640,-0.12
69653,1.46
69667,-1.18
69680,-0.51
69693,0.96
69707,-0.55
69720,-0.52
69733,0.73
69746,0.22
69760,0.54
69773,0.27
69787,-1.86
69800,-1.06
69813,1.88
69826,0.93
69840,-0.54
69853,0.73
69866,-1.88
69880,-0.42
69893,1.27
69907,-0.31
69920,0.63
69933,1.23
69946,-2.31
69960,-0.30
69973,1.02
69987,-0.91
70000,1.39
70013,1.02
70027,-1.50
70040,-1.33
70053,1.15
70067,0.34
70080,-0.36
70093,0.80
70107,-1.14
70120,0.13
70133,1.34
70146,-0.81
70160,-1.37
70173,1.75
70187,-1.00
70200,0.09
70213,1.58
70226,-0.69
70240,-1.52
70253,0.53
70266,0.26
70280,0.13
70293,1.00
70306,-0.65
70320,-0.97
70333,0.73
70346,-0.30
70360,0.44
70373,-0.22
70387,-0.51
70400,0.34
70413,2.04
70426,-1.73
70440,-2.12
70453,1.82
70466,0.91
70480,-0.57
70493,0.39
70507,-1.18
70520,0.31
70533,1.52
70546,-1.62
70560,-0.65
70573,1.59
70586,-0.66
70600,0.00
70613,1.30
70627,-1.44
70640,-0.47
70653,1.26
70666,-0.38
70681,-0.83
70693,0.92
70706,0.05
70720,-0.39
70733,0.68
70746,-0.74
70760,-0.03
70773,0.29
70786,-0.49
70800,0.08
70813,1.41
70826,-0.54
70840,-1.24
70853,0.38
70866,0.79
70880,-1.56
70893,1.99
70906,-0.18
70920,-1.32
70933,1.31
70946,-1.44
70960,-0.02
70973,1.96
70986,-1.01
71000,-0.82
71013,1.50
71027,-1.15
71040,-0.99
71053,1.69
71066,0.61
71080,-0.90
71093,0.55
71106,-1.41
71120,-1.49
71133,3.38
71146,0.56
71160,-2.40
71173,0.69
71187,-0.36
71200,0.23
71213,1.04
71227,-1.58
71240,-0.13
71253,1.72
71266,-0.14
71280,-1.97
71293,1.86
71306,-0.20
71320,-1.82
71333,1.37
71346,1.30
71360,-1.48
71373,-0.39
71386,-0.00
71400,0.53
71413,1.22
71426,-0.90
71440,-1.41
71453,1.44
71466,-0.36
71480,-1.19
71493,2.11
71506,0.45
71520,-1.50
71533,-0.56
71546,0.44
71560,-0.91
71573,1.95
71586,0.73
71600,-1.79
71613,0.30
71626,-0.36
71640,-0.52
71653,1.08
71666,0.13
71680,-0.28
71693,0.72
71706,-0.55
71720,-1.53
71733,1.37
71746,0.98
71760,-1.55
71773,-0.04
71787,0.36
71800,0.38
71813,1.56
71826,-1.70
71840,-2.32
71853,2.18
71867,1.29
71880,-0.84
71893,-0.38
71906,-0.57
71920,-0.57
71933,2.08
71946,0.75
71960,-2.29
71973,-0.67
71986,1.10
72000,0.25
72013,0.68
72026,0.22
72040,-2.15
72053,0.78
72067,1.37
72080,-1.71
72093,0.50
72106,1.17
72120,-1.57
72133,0.61
72146,1.01
72160,-1.99
72173,1.18
72186,0.35
72200,-1.51
72213,1.15
72226,0.49
72239,-0.93
72253,-0.25
72266,1.50
72280,-1.31
72293,0.12
72306,0.35
72320,-0.95
72333,0.61
72346,1.07
72360,-0.68
72373,-0.05
72386,0.05
72400,-1.23
72413,1.27
72427,-0.26
72440,-0.98
72453,2.05
72466,0.33
72480,-2.28
72493,0.39
72506,0.40
72520,-0.72
72533,1.48
72546,0.85
72559,-2.33
72573,-0.34
72586,2.12
72600,-0.96
72613,0.03
72626,0.31
72639,-1.67
72653,1.41
72666,0.77
72680,-0.57
72693,-0.20
72706,-0.08
72720,-1.63
72733,1.44
72746,2.22
72760,-2.05
72773,-1.14
72786,1.03
72800,-0.32
72813,1.35
72826,0.45
72840,-2.75
72853,0.36
72866,1.75
72880,-1.04
72893,0.68
72906,0.75
72920,-2.08
72933,0.47
72946,1.25
72961,-1.52
72973,0.68
72986,0.97
73000,-1.10
73013,-0.14
73026,0.71
73040,-1.15
73053,1.17
73066,0.96
73079,-2.32
73093,0.27
73106,1.38
73120,-1.25
73133,0.77
73146,0.97
73160,-1.96
73173,0.44
73186,1.15
73199,-1.59
73213,0.66
73226,1.14
73239,-1.72
73253,0.40
73266,1.74
73280,-2.38
73293,0.20
73306,1.68
73320,-1.11
73333,0.41
73346,0.34
73360,-1.37
73373,0.16
73386,1.19
73400,-0.96
73413,1.02
73426,0.69
73440,-2.46
73453,0.30
73466,1.49
73480,-1.17
73493,0.64
73506,1.44
73520,-2.02
73533,-0.63
73546,1.32
73560,-0.29
73573,0.44
73586,1.02
73600,-2.28
73613,0.09
73626,0.42
73640,0.42
73653,0.95
73666,0.10
73680,-2.22
73693,0.15
73706,2.05
73720,-0.50
73733,-1.51
73746,0.61
73760,0.38
73773,0.09
73786,0.97
73800,-1.47
73813,-0.31
73826,1.23
73840,-0.73
73853,-0.26
73866,0.56
73880,-0.76
73893,0.89
73906,1.66
73920,-2.12
73933,-1.28
73946,1.41
73960,-0.49
73973,1.08
73986,0.63
74000,-1.30
74013,-0.81
74026,1.35
74039,0.02
74053,-0.80
74066,0.65
74080,-0.95
74093,0.41
74106,1.64
74120,-1.49
74133,-0.81
74146,2.03
74160,-1.58
74173,-0.48
74186,1.78
74200,-0.04
74213,-1.19
74226,0.27
74240,-0.19
74253,-0.06
74266,1.15
74280,-0.40
74293,-0.84
74306,0.85
74320,-0.89
74333,0.24
74346,1.31
74360,-0.85
74373,-1.18
74386,1.15
74400,-0.47
74413,1.07
74427,0.30
74440,-1.67
74453,-0.78
74466,1.91
74480,-0.22
74493,-0.07
74506,0.63
74520,-1.15
74533,-0.97
74546,1.34
74560,0.62
74573,-0.98
74586,1.12
74600,-0.42
74613,-1.28
74626,0.62
74640,-0.47
74653,0.72
74666,2.30
74680,-2.54
74693,-1.39
74706,1.75
74720,0.54
74733,-0.72
74746,0.30
74760,-0.45
74773,-0.45
74786,1.75
74800,-0.99
74813,-1.13
74826,1.29
74839,0.33
74853,-0.79
74866,0.92
74880,-1.29
74893,-0.72
74906,1.99
74920,-0.16
74933,-0.20
74946,0.35
74960,-1.29
74973,-0.86
74986,1.58
75000,0.61
75013,-0.38
75026,0.31
75040,-0.90
75053,-0.74
75066,0.94
75080,0.69
75093,-1.08
75106,0.42
75120,0.13
75133,-0.07
75146,0.65
75160,-0.89
75173,-0.99
75187,1.78
75200,-0.51
75213,-0.75
75226,1.25
75240,0.19
75253,-1.51
75266,0.93
75280,-0.12
75293,-0.78
75306,0.73
75319,0.05
75333,-0.11
75346,0.89
75359,-0.69
75373,-0.97
75386,0.77
75400,0.10
75413,-0.93
75426,1.64
75440,0.03
75453,-1.24
75466,0.18
75480,-0.14
75493,0.09
75506,1.04
75520,0.12
75533,-1.67
75546,0.28
75560,0.57
75573,-0.37
75586,1.48
75600,-0.42
75613,-2.19
