Time (ms),EMG Value
2006,0.31
2019,-0.86
2033,-0.38
2046,1.32
2059,0.66
2073,-1.35
2086,-0.78
2099,1.24
2113,0.68
2126,-1.32
2139,-0.51
2153,0.94
2166,0.84
2180,-0.17
2193,-1.52
2206,0.16
2219,1.58
2233,-1.47
2246,0.37
2259,0.84
2273,-0.71
2286,-0.38
2300,0.52
2313,0.42
2326,-0.50
2340,0.04
2353,-0.78
2366,0.08
2379,1.04
2393,0.49
2406,0.16
2420,-1.63
2433,-0.79
2446,0.93
2460,1.36
2473,-0.53
2486,-0.10
2499,-0.24
2513,-0.48
2526,-0.29
2540,1.11
2553,-0.11
2566,-0.45
2579,0.95
2593,-1.17
2606,-0.13
2619,1.18
2633,-0.68
2646,-0.77
2660,0.49
2673,0.96
2686,0.01
2699,-0.06
2713,-1.50
2726,0.26
2740,0.51
2753,-0.04
2766,0.94
2779,0.93
2793,-2.56
2806,-0.72
2819,1.46
2833,0.69
2846,-0.08
2859,0.28
2873,-0.76
2886,-0.35
2899,-0.62
2913,-0.27
2926,2.74
2939,0.27
2953,-1.81
2966,-1.25
2979,0.58
2993,0.45
3006,1.02
3019,0.73
3033,-1.71
3046,-1.14
3060,0.85
3073,1.36
3086,0.02
3099,-0.12
3113,-2.11
3126,0.37
3139,1.56
3153,0.49
3166,-0.93
3179,-0.11
3193,-0.61
3206,0.14
3219,0.84
3233,0.43
3246,-0.46
3260,-0.73
3273,-0.21
3286,0.40
3299,0.51
3313,0.16
3326,-0.36
3340,0.35
3353,-0.81
3366,-0.49
3379,1.33
3393,0.00
3406,-0.53
3419,-0.09
3433,0.24
3446,0.06
3460,-0.19
3473,-0.12
3486,0.11
3500,0.20
3513,0.06
3526,-0.11
3539,-0.15
3553,-0.05
3566,0.05
3580,0.08
3593,-0.11
3606,0.49
3619,-0.06
3633,-1.08
3646,0.01
3660,1.79
3673,-0.25
3686,-1.33
3699,0.27
3713,-0.14
3726,-0.00
3739,1.21
3753,-0.36
3766,-0.86
3780,0.63
3793,-0.31
3806,-0.46
3819,0.96
3833,-0.24
3846,-0.41
3859,0.18
3873,0.36
3886,-0.20
3899,0.29
3913,-0.87
3926,-0.38
3939,1.48
3953,0.03
3966,-0.81
3979,0.40
3993,-0.48
4006,-0.41
4019,1.10
4033,-0.16
4046,-0.60
4059,0.74
4073,-0.37
4086,-0.58
4100,1.03
4113,-0.90
4126,0.13
4140,1.24
4153,-0.85
4166,-1.15
4180,1.02
4193,0.33
4206,-0.25
4220,0.59
4233,-0.74
4246,-0.75
4260,1.00
4273,-0.03
4286,-0.43
4299,0.82
4313,-0.40
4326,-0.64
4339,0.98
4353,-0.91
4366,0.14
4379,1.25
4393,-0.84
4406,-1.15
4419,1.02
4433,0.33
4446,-0.25
4460,0.59
4473,-0.74
4486,-0.75
4499,1.00
4513,-0.03
4526,-0.42
4540,0.82
4553,-0.40
4566,-0.64
4579,0.83
4593,-0.27
4606,-0.53
4620,0.87
4633,-0.28
4646,-0.56
4659,0.85
4673,-0.30
4686,-0.56
4699,0.85
4713,-0.29
4726,-0.56
4739,0.85
4753,-0.29
4766,-0.56
4779,0.85
4793,-0.29
4806,-0.56
4819,0.85
4833,-0.29
4846,-0.56
4860,0.85
4873,-0.29
4886,-0.56
4899,0.85
4913,-0.29
4926,-0.56
4939,0.85
4953,-0.29
4966,-0.56
4979,0.85
4993,-0.29
5006,-0.56
5019,0.85
5033,-0.29
5046,-0.56
5060,0.85
5073,-0.29
5086,-0.56
5099,0.70
5113,0.35
5126,-1.08
5139,-0.17
5153,0.94
5166,0.56
5179,-0.52
5193,-0.83
5206,-0.32
5219,1.18
5233,-0.11
5246,-0.45
5259,0.88
5273,-0.42
5286,-0.80
5299,0.69
5313,-0.24
5326,-0.37
5339,1.02
5353,-0.26
5366,-0.49
5379,0.10
5393,0.33
5406,-0.18
5419,0.33
5433,-0.84
5446,-0.37
5460,1.48
5473,0.02
5486,-0.82
5499,0.39
5513,-0.49
5526,-0.42
5540,1.11
5553,-0.15
5566,-0.59
5579,0.75
5593,-0.37
5606,-0.58
5619,0.87
5633,-0.26
5646,-0.54
5659,0.86
5673,-0.29
5686,-0.41
5699,0.20
5713,0.38
5726,-0.18
5739,0.29
5753,-0.88
5766,-0.23
5779,0.83
5793,0.70
5806,-0.44
5819,-0.15
5833,-1.07
5846,-0.24
5859,1.73
5873,0.16
5886,-0.85
5899,0.29
5913,-0.56
5926,-0.43
5940,1.13
5953,-0.13
5966,-0.57
5979,0.75
5993,-0.37
6006,-0.43
6019,0.22
6033,0.41
6046,-0.16
6060,0.30
6073,-0.88
6086,-0.39
6099,1.47
6113,0.02
6126,-0.82
6139,0.40
6153,-0.48
6166,-0.41
6180,1.11
6193,-0.15
6206,-0.59
6219,0.74
6233,-0.22
6246,-1.22
6259,1.54
6273,0.12
6286,-1.10
6299,0.27
6313,-0.12
6326,0.06
6339,1.16
6353,-0.55
6366,-1.01
6379,0.66
6393,-0.14
6406,-0.15
6419,0.19
6433,1.00
6446,-0.81
6459,-0.81
6473,0.33
6486,0.60
6499,0.78
6513,-1.17
6526,-0.95
6539,1.28
6553,0.28
6566,-0.48
6580,0.51
6593,-0.61
6606,-0.58
6619,1.03
6633,-0.13
6646,-0.53
6659,0.79
6673,-0.36
6686,-0.43
6699,0.21
6713,0.40
6726,-0.01
6739,-0.34
6753,-0.20
6766,-0.01
6779,0.92
6793,-0.57
6806,-0.49
6819,0.38
6833,0.51
6846,-0.29
6859,0.10
6873,-0.78
6886,-0.92
6899,2.30
6913,0.61
6926,-2.07
6940,0.40
6953,0.18
6966,-0.98
6979,1.54
6993,0.32
7006,-1.45
7019,0.31
7033,0.90
7046,-0.97
7059,0.65
7073,-0.29
7086,-1.24
7099,1.75
7113,0.42
7126,-0.87
7139,-0.63
7153,0.38
7166,-0.32
7179,1.43
7193,-0.51
7206,-1.10
7219,0.03
7233,0.90
7246,0.50
7259,-0.39
7273,-0.66
7286,-0.22
7299,0.29
7313,0.39
7326,0.13
7339,-0.13
7353,-0.18
7366,-0.24
7379,0.66
7393,-0.46
7406,-1.14
7419,1.89
7433,0.29
7446,-1.27
7460,-0.18
7473,0.57
7486,-1.14
7499,1.63
7513,0.47
7526,-0.86
7539,-0.98
7553,0.67
7566,-0.29
7579,0.64
7593,-0.14
7606,-0.15
7620,0.88
7633,-0.74
7646,-0.84
7659,0.05
7673,1.38
7686,-0.54
7699,-0.04
7713,-0.49
7726,0.17
7739,0.44
7753,0.91
7766,-2.00
7779,0.44
7793,0.48
7806,-0.67
7819,1.49
7833,-0.18
7846,-1.08
7860,-0.49
7873,1.23
7886,-0.12
7899,-0.46
7913,0.14
7926,0.37
7939,-0.19
7953,0.26
7966,-0.89
7979,-0.20
7993,0.88
8006,0.72
8020,-0.30
8033,-0.68
8046,-1.06
8059,0.97
8073,0.93
8086,-0.45
8099,-0.24
8112,-0.14
8126,-0.59
8139,0.51
8153,0.99
8166,0.05
8179,-0.96
8193,-0.65
8206,-0.47
8219,1.49
8232,1.13
8246,-1.27
8259,-0.39
8273,0.15
8286,-0.01
8299,-0.10
8313,0.28
8326,-0.36
8339,0.79
8353,0.21
8366,-0.81
8379,-0.83
8393,0.92
8406,-0.05
8419,0.64
8433,-0.41
8446,-0.32
8460,-0.01
8473,0.76
8486,-0.88
8499,-0.75
8513,1.31
8526,0.25
8539,-0.34
8553,-0.16
8566,0.01
8579,-0.26
8593,0.46
8606,-0.67
8619,-0.30
8632,1.45
8646,-0.05
8659,-0.71
8673,-0.26
8686,0.20
8699,0.13
8713,-0.08
8726,-0.06
8739,-0.04
8753,0.81
8766,-0.64
8779,-0.66
8793,1.20
8806,-0.78
8819,0.18
8833,0.55
8846,-0.87
8859,0.02
8873,0.99
8886,-0.76
8899,-0.72
8913,1.31
8926,0.15
8939,-0.69
8952,0.32
8966,-0.64
8979,-0.30
8993,0.58
9006,0.66
9019,-0.17
9033,0.12
9046,-1.05
9060,-0.30
9073,0.86
9086,0.76
9099,-0.23
9113,-0.77
9126,-0.39
9139,0.28
9153,0.52
9166,0.23
9180,-0.31
9193,0.36
9206,-0.83
9219,-0.36
9233,0.67
9246,0.68
9259,-0.14
9273,-0.64
9286,-0.34
9299,0.23
9313,0.44
9326,0.19
9339,-0.14
9353,-0.10
9366,-0.77
9379,0.71
9393,0.64
9406,-1.12
9419,0.11
9433,0.53
9446,0.04
9459,-0.45
9473,0.55
9486,-0.49
9499,-0.40
9513,1.10
9526,-0.27
9539,-0.76
9553,0.69
9566,-0.25
9580,-0.24
9593,0.32
9606,0.38
9619,-0.27
9633,0.21
9646,-0.90
9659,-0.36
9673,1.52
9686,0.05
9699,-0.81
9713,0.40
9726,-0.49
9739,-0.27
9753,0.46
9766,0.52
9779,-0.06
9793,-0.45
9806,-0.28
9819,-0.02
9833,0.94
9846,-0.53
9859,-0.47
9873,0.39
9886,0.50
9899,-0.30
9913,0.10
9926,-0.94
9939,-0.27
9953,1.63
9966,0.08
9979,-0.87
9993,0.32
10006,-0.53
10019,-0.41
10033,1.14
10046,-0.13
10059,-0.58
10073,0.74
10086,-0.38
10099,-0.59
10113,0.87
10126,-0.26
10139,-0.54
10153,0.86
10166,-0.29
10179,-0.56
10193,0.85
10206,-0.29
10219,-0.56
10233,0.85
10246,-0.29
10259,-0.56
10273,0.85
10286,-0.29
10299,-0.56
10313,0.85
10326,-0.29
10339,-0.41
10353,0.20
10366,0.38
10379,-0.18
10393,0.29
10406,-0.88
10419,-0.39
10433,1.48
10446,0.02
10459,-0.82
10473,0.40
10486,-0.48
10499,-0.41
10512,1.11
10526,-0.16
10539,-0.59
10553,0.59
10566,0.27
10579,-1.25
10593,0.49
10606,0.30
10619,0.05
10633,0.68
10646,-0.92
10659,-0.73
10673,0.46
10686,0.83
10699,0.01
10712,0.14
10726,-1.13
10739,-0.37
10753,0.87
10766,0.81
10779,-0.20
10793,-0.78
10806,-0.42
10819,0.11
10833,1.15
10846,-0.44
10859,-0.52
10872,0.28
10886,0.43
10899,-0.30
10913,0.13
10926,-0.90
10939,-0.25
10952,1.63
10966,0.07
10979,-0.72
10993,-0.49
11006,0.78
11019,-0.71
11032,0.20
11046,-0.16
11060,0.18
11073,1.20
11086,-0.69
11099,-1.00
11113,0.03
11126,0.67
11139,0.18
11153,0.25
11166,-0.35
11179,-1.23
11193,0.87
11206,1.25
11219,-0.84
11233,-0.11
11246,-0.54
11259,0.00
11273,0.38
11286,0.98
11299,-0.86
11313,-0.88
11326,1.11
11339,0.10
11353,-0.53
11366,0.57
11379,-0.70
11393,0.08
11406,0.35
11419,-0.66
11433,0.52
11446,1.34
11459,-1.75
11473,-0.57
11486,1.65
11499,-0.66
11513,-1.02
11526,2.55
11539,-1.42
11553,-2.14
11566,3.46
11579,-1.28
11593,-1.31
11606,2.21
11619,-0.92
11633,-1.67
11646,3.92
11659,-2.56
11673,-3.06
11686,5.06
11699,-0.65
11713,-2.99
11726,4.27
11739,-2.77
11752,-2.68
11766,5.11
11779,-1.64
11793,-3.21
11806,6.75
11819,-4.29
11832,-3.68
11846,7.08
11859,-2.64
11873,-3.88
11886,7.10
11899,-3.34
11913,-4.82
11926,8.25
11939,-2.56
11952,-5.67
11966,7.96
11979,-3.28
11993,-4.69
12006,9.03
12019,-4.02
12033,-5.48
12046,9.84
12059,-4.31
12073,-7.01
12086,12.26
12099,-5.35
12113,-6.59
12126,11.33
12139,-3.92
12153,-7.70
12166,12.37
12179,-5.30
12193,-7.83
12206,12.73
12219,-4.22
12233,-8.14
12246,13.50
12259,-5.64
12273,-8.82
12286,13.24
12299,-4.55
12313,-7.95
12326,15.24
12339,-7.72
12353,-10.16
12366,16.88
12379,-5.05
12393,-10.77
12406,16.59
12419,-7.42
12433,-10.16
12446,17.96
12459,-6.83
12473,-11.57
12486,17.94
12499,-5.28
12513,-11.28
12526,15.94
12539,-7.17
12553,-10.59
12566,19.56
12579,-5.83
12593,-13.02
12606,17.47
12619,-6.82
12633,-11.67
12646,19.60
12659,-6.27
12673,-12.25
12686,18.15
12699,-7.76
12713,-11.48
12726,20.08
12739,-6.90
12753,-13.15
12766,19.45
12779,-6.93
12793,-12.33
12806,18.96
12819,-6.83
12833,-12.31
12846,20.92
12859,-8.34
12873,-13.54
12886,20.79
12899,-6.98
12913,-13.48
12926,19.91
12939,-5.92
12953,-12.94
12966,19.60
12979,-7.90
12993,-13.40
13006,21.19
13019,-6.42
13033,-13.59
13046,19.92
13059,-7.41
13073,-12.73
13086,19.97
13099,-7.19
13112,-12.90
13126,20.91
13139,-7.21
13153,-14.09
13166,20.27
13179,-7.32
13193,-12.31
13206,20.98
13219,-7.67
13233,-14.30
13246,20.44
13259,-6.46
13273,-12.38
13286,19.56
13299,-7.92
13313,-12.46
13326,20.59
13339,-8.08
13352,-12.07
13366,20.51
13379,-8.56
13393,-13.06
13406,21.41
13419,-6.93
13433,-14.13
13446,20.09
13459,-6.63
13473,-13.03
13486,20.58
13499,-7.90
13513,-13.01
13526,20.97
13539,-8.13
13553,-12.58
13566,20.29
13579,-7.35
13593,-13.24
13606,20.89
13619,-7.09
13633,-13.28
13646,19.33
13659,-7.27
13673,-12.50
13686,21.29
13700,-7.14
13713,-14.28
13726,19.91
13739,-6.75
13753,-12.94
13766,20.68
13779,-7.06
13793,-13.70
13806,20.26
13819,-6.95
13833,-13.36
13846,20.64
13859,-7.59
13873,-12.79
13886,20.76
13899,-7.53
13913,-14.04
13926,20.59
13939,-6.33
13953,-13.13
13966,20.15
13979,-7.41
13993,-13.64
14006,20.56
14019,-6.70
14033,-13.31
14046,20.53
14059,-7.71
14073,-12.86
14086,20.77
14099,-7.49
14113,-14.00
14126,20.60
14139,-6.33
14152,-13.14
14166,20.15
14179,-7.41
14193,-13.64
14206,20.56
14220,-6.70
14233,-13.16
14246,19.73
14259,-6.39
14273,-12.99
14286,19.19
14299,-6.85
14313,-12.71
14326,19.85
14339,-6.55
14353,-13.16
14366,20.03
14379,-7.58
14393,-12.59
14406,19.52
14419,-6.56
14433,-11.86
14446,18.67
14459,-6.92
14473,-13.39
14486,19.75
14499,-5.19
14513,-13.30
14526,18.47
14539,-6.12
14552,-13.06
14566,19.27
14579,-5.68
14593,-13.23
14606,18.73
14619,-5.24
14633,-13.84
14646,18.50
14659,-4.59
14673,-13.26
14686,18.13
14699,-4.61
14713,-14.26
14726,18.01
14739,-3.59
14752,-13.47
14766,17.69
14779,-4.48
14792,-13.93
14806,17.83
14819,-3.28
14833,-14.33
14846,17.32
14859,-3.00
14872,-13.91
14886,17.00
14899,-2.88
14912,-14.66
14926,16.11
14939,-0.57
14953,-14.20
14966,14.83
14979,-1.49
14992,-13.89
15006,15.58
15019,-1.25
15032,-14.18
15046,14.95
15059,0.02
15072,-15.36
15086,14.31
15099,1.11
15112,-14.27
15126,13.76
15139,0.52
15153,-15.54
15166,13.76
15179,2.62
15193,-15.10
15206,11.95
15219,3.99
15233,-16.22
15246,11.43
15259,3.88
15273,-15.05
15286,11.62
15299,5.00
15313,-16.41
15326,9.65
15339,6.49
15353,-16.27
15366,9.82
15379,7.20
15393,-16.05
15406,8.83
15419,6.82
15432,-16.87
15446,9.07
15459,8.86
15473,-16.76
15486,7.79
15499,9.55
15513,-18.06
15526,7.07
15539,11.36
15553,-17.52
15566,6.48
15579,10.81
15593,-17.57
15606,6.51
15619,11.56
15633,-18.23
15646,5.84
15659,13.44
15673,-19.01
15686,4.68
15699,14.50
15713,-18.67
15726,3.47
15739,15.63
15753,-18.80
15766,2.55
15779,16.23
15793,-18.80
15806,2.46
15819,17.17
15833,-19.44
15846,1.51
15859,17.94
15873,-19.51
15886,1.21
15899,18.90
15913,-19.71
15926,-0.12
15939,20.33
15953,-19.64
15966,-1.06
15979,19.99
15993,-19.05
16006,-0.60
16019,20.60
16033,-20.20
16046,-1.29
16059,21.23
16073,-19.35
16086,-1.47
16099,21.21
16113,-20.45
16126,-1.66
16139,22.22
16153,-19.64
16166,-2.11
16179,21.99
16193,-20.61
16206,-2.85
16219,23.77
16232,-19.38
16246,-3.71
16259,22.28
16272,-19.68
16286,-2.81
16299,23.14
16313,-19.66
16326,-3.54
16339,23.33
16353,-20.20
16366,-4.29
16379,24.79
16393,-19.18
16406,-5.10
16419,23.48
16433,-19.37
16446,-4.22
16459,24.27
16472,-19.26
16486,-5.60
16499,25.14
16513,-19.70
16526,-5.61
16539,24.68
16553,-19.12
16566,-5.33
16579,25.52
16593,-19.53
16606,-6.71
16619,24.90
16632,-18.74
16646,-5.51
16659,25.29
16673,-19.16
16686,-6.94
16699,25.66
16713,-18.54
16726,-7.09
16739,25.30
16753,-18.54
16766,-6.12
16779,25.46
16793,-19.74
16806,-7.02
16819,27.12
16833,-18.77
16846,-8.10
16860,25.73
16872,-18.69
16886,-6.88
16899,26.60
16913,-18.93
16926,-7.72
16939,26.05
16953,-18.71
16966,-7.95
16979,27.05
16993,-18.26
17006,-8.78
17019,26.97
17033,-18.84
17046,-8.54
17060,27.86
17073,-18.33
17086,-9.79
17099,27.73
17113,-17.95
17126,-10.48
17139,28.40
17152,-17.25
17166,-10.67
17179,27.78
17193,-17.33
17206,-11.08
17219,28.72
17233,-16.96
17246,-11.80
17259,28.05
17273,-16.71
17286,-11.05
17299,28.41
17312,-16.86
17326,-12.38
17339,29.49
17353,-17.00
17366,-13.03
17379,29.63
17392,-16.10
17406,-13.32
17419,29.90
17432,-16.48
17446,-13.42
17459,28.92
17473,-16.33
17486,-12.11
17499,29.70
17512,-16.77
17526,-13.91
17539,29.90
17552,-15.78
17566,-14.37
17579,30.31
17592,-15.42
17606,-14.67
17619,29.82
17632,-15.33
17646,-15.01
17659,30.73
17672,-15.02
17686,-15.77
17699,30.05
17712,-14.76
17726,-15.01
17739,30.42
17753,-15.06
17766,-15.70
17779,30.83
17792,-15.43
17806,-16.43
17819,32.22
17833,-14.64
17846,-16.63
17859,30.25
17872,-15.03
17886,-15.82
17899,32.30
17912,-14.87
17926,-17.59
17939,30.95
17953,-14.27
17966,-16.87
17979,32.37
17992,-14.26
18006,-18.22
18019,31.35
18032,-13.95
18046,-17.23
18059,31.91
18072,-14.04
18086,-18.44
18099,32.28
18112,-13.71
18126,-18.08
18139,31.18
18153,-13.77
18166,-17.64
18179,32.68
18192,-14.00
18206,-18.61
18219,30.94
18232,-13.63
18246,-17.51
18259,33.48
18273,-14.70
18286,-19.25
18299,32.06
18312,-13.74
18326,-18.05
18339,33.44
18352,-14.25
18366,-19.80
18379,32.55
18393,-13.49
18406,-18.50
18419,33.04
18432,-14.02
18446,-19.29
18459,32.72
18473,-13.80
18486,-18.90
18499,32.94
18513,-13.82
18526,-19.04
18539,32.82
18552,-13.71
18566,-19.67
18579,33.53
18593,-13.45
18606,-19.56
18619,32.27
18632,-13.67
18646,-18.39
18659,33.17
18673,-14.10
18686,-19.62
18699,33.31
18712,-14.37
18726,-19.29
18739,34.19
18752,-13.81
18766,-20.47
18779,34.02
18793,-13.88
18806,-20.00
18819,33.32
18832,-13.70
18846,-19.62
18859,34.61
18873,-13.91
18886,-21.23
18899,33.62
18913,-13.25
18926,-19.88
18939,34.24
18952,-13.87
18966,-20.06
18979,33.31
18992,-14.58
19006,-19.09
19019,35.05
19032,-14.28
19046,-21.65
19059,33.83
19072,-12.71
19086,-19.82
19099,34.57
19112,-14.84
19126,-21.40
19139,35.21
19152,-13.37
19166,-20.89
19179,34.62
19193,-14.06
19206,-20.98
19220,34.97
19233,-13.78
19246,-21.00
19259,34.78
19272,-13.90
19286,-20.98
19299,34.87
19313,-13.84
19326,-20.97
19339,34.85
19352,-13.87
19366,-20.99
19379,34.84
19393,-13.86
19406,-20.98
19419,34.85
19433,-13.86
19446,-20.98
19459,34.85
19472,-13.86
19486,-20.99
19499,34.84
19513,-13.86
19526,-20.99
19539,34.85
19552,-13.71
19566,-21.63
19579,35.52
19592,-13.48
19606,-21.54
19619,34.26
19633,-13.69
19646,-20.51
19659,35.80
19672,-14.64
19686,-22.61
19699,36.53
19713,-13.27
19726,-22.64
19739,35.64
19752,-13.59
19766,-22.12
19779,36.03
19792,-13.15
19806,-22.62
19819,34.64
19832,-12.76
19846,-21.84
19859,35.94
19873,-13.32
19886,-22.79
19899,34.37
19912,-12.22
19926,-21.64
19939,34.95
19953,-12.47
19966,-22.50
19979,34.18
19992,-12.40
20006,-22.57
20019,35.38
20033,-11.27
20046,-23.39
20059,33.32
20073,-11.19
20086,-21.63
20099,34.20
20113,-12.09
20126,-22.94
20139,33.95
20153,-11.13
20166,-22.89
20179,35.26
20192,-11.22
20206,-24.99
20219,34.53
20232,-9.13
20246,-24.41
20259,33.80
20272,-9.75
20286,-24.37
20299,33.93
20312,-8.98
20326,-25.08
20339,33.53
20353,-8.39
20366,-24.50
20379,33.13
20393,-8.61
20406,-24.85
20419,32.24
20432,-7.11
20446,-24.80
20459,32.63
20472,-6.62
20486,-26.55
20499,31.46
20512,-5.70
20526,-24.92
20539,31.77
20552,-5.91
20566,-26.58
20579,31.19
20593,-4.88
20606,-25.50
20619,30.82
20632,-4.40
20646,-27.52
20659,30.74
20672,-2.83
20686,-26.99
20699,29.66
20712,-1.88
20726,-27.65
20739,28.30
20753,-1.20
20766,-27.16
20779,28.65
20793,-0.21
20806,-28.07
20819,27.39
20832,0.44
20846,-28.07
20859,27.24
20873,1.49
20886,-28.56
20899,27.16
20912,1.55
20926,-29.12
20939,26.53
20952,3.69
20966,-29.17
20979,24.81
20993,3.65
21006,-29.19
21019,25.96
21032,4.32
21046,-30.27
21059,25.09
21073,6.08
21086,-31.22
21099,23.89
21112,7.39
21126,-30.68
21139,23.48
21153,7.69
21166,-31.48
21179,23.09
21193,8.24
21206,-30.84
21219,22.88
21232,8.37
21246,-31.83
21259,22.50
21273,9.92
21286,-31.75
21299,21.69
21312,10.29
21326,-32.26
21339,21.27
21353,11.40
21366,-32.25
21379,20.19
21393,12.18
21406,-31.72
21419,20.08
21432,11.23
21446,-32.78
21459,21.05
21473,12.97
21486,-32.51
21499,19.53
21512,12.31
21526,-33.18
21539,20.15
21552,13.72
21566,-32.53
21579,19.31
21593,13.24
21606,-33.66
21619,19.34
21632,14.47
21646,-32.76
21659,18.88
21672,14.33
21686,-34.58
21699,19.43
21713,15.66
21726,-33.63
21739,17.87
21753,14.56
21766,-32.92
21779,18.89
21792,15.32
21806,-34.39
21819,17.89
21832,16.16
21846,-33.91
21859,18.72
21872,15.84
21886,-35.06
21899,18.05
21912,17.10
21926,-34.82
21939,17.93
21952,17.18
21966,-34.83
21979,17.57
21992,16.63
22005,-34.17
22019,17.30
22032,16.65
22046,-33.55
22059,17.49
22072,16.99
22086,-35.61
22099,17.54
22113,18.32
22126,-35.04
22139,16.99
22152,17.53
22166,-34.38
22179,16.73
22193,17.53
22206,-34.61
22219,17.73
22232,17.65
22246,-35.69
22259,16.82
22273,18.78
22286,-35.32
22299,16.89
22313,18.89
22326,-35.45
22339,16.40
22352,18.46
22366,-35.39
22379,16.88
22393,18.90
22406,-35.33
22419,16.61
22432,18.60
22446,-35.45
22459,16.52
22473,19.22
22486,-35.38
22499,15.49
22513,19.53
22526,-34.92
22539,16.56
22553,19.10
22566,-36.42
22579,15.91
22593,19.98
22605,-35.15
22619,16.28
22632,19.33
22646,-35.98
22659,15.83
22672,20.26
22686,-36.22
22699,15.68
22712,20.62
22726,-35.15
22739,14.70
22752,19.72
22766,-35.53
22779,16.26
22792,20.41
22806,-36.51
22819,15.21
22832,20.58
22846,-35.57
22859,15.59
22872,20.92
22886,-36.87
22899,14.90
22912,21.64
22926,-35.95
22939,14.93
22952,21.00
22966,-36.39
22979,14.93
22993,22.05
23006,-36.86
23019,14.58
23032,21.73
23046,-35.72
23059,14.67
23072,21.30
23086,-37.22
23099,14.74
23112,22.75
23125,-35.52
23139,13.46
23152,21.03
23166,-35.59
23179,14.50
23192,21.68
23206,-35.81
23219,13.87
23232,22.35
23246,-36.93
23259,14.34
23272,23.26
23286,-37.04
23299,13.50
23312,22.68
23326,-36.00
23339,13.45
23352,22.50
23366,-35.73
23379,13.51
23393,22.84
23406,-36.91
23419,12.99
23432,23.74
23446,-35.90
23459,12.95
23472,22.92
23486,-36.48
23499,13.08
23512,23.41
23526,-36.17
23539,13.02
23552,23.02
23566,-35.68
23579,12.19
23592,23.37
23606,-35.73
23619,12.42
23633,23.74
23646,-35.95
23659,12.41
23672,23.34
23686,-36.71
23699,12.39
23713,25.46
23726,-36.13
23739,11.40
23752,22.88
23765,-35.78
23779,12.73
23792,24.17
23806,-35.55
23819,11.67
23832,23.70
23846,-36.59
23859,11.80
23873,24.87
23886,-34.83
23899,10.14
23913,24.29
23926,-35.29
23939,11.72
23952,23.66
23966,-35.69
23979,11.25
23992,24.20
24006,-34.03
24019,10.43
24032,23.47
24046,-34.99
24059,10.73
24072,24.60
24086,-34.43
24099,10.27
24113,23.69
24126,-34.01
24139,9.78
24152,24.37
24166,-34.19
24179,10.44
24193,23.71
24206,-34.03
24219,9.91
24232,23.65
24246,-33.46
24259,10.16
24272,23.76
24286,-33.31
24299,8.27
24312,23.78
24325,-31.48
24339,9.97
24352,21.83
24365,-32.95
24379,9.29
24392,23.71
24406,-32.06
24419,9.14
24433,23.06
24446,-31.88
24459,8.01
24472,23.31
24486,-31.87
24499,9.24
24513,23.22
24526,-32.39
24539,8.90
24552,23.88
24566,-33.28
24579,9.09
24592,23.56
24606,-31.38
24619,7.64
24632,23.37
24646,-30.89
24659,8.86
24673,21.70
24686,-32.06
24699,8.68
24712,24.53
24726,-30.70
24739,7.44
24753,21.79
24766,-31.78
24779,9.17
24792,23.54
24806,-31.08
24819,9.26
24832,21.25
24846,-31.92
24859,9.08
24873,22.96
24886,-30.62
24899,8.19
24913,22.17
24926,-30.45
24939,8.29
24953,22.40
24966,-30.70
24979,6.68
24993,23.73
25006,-28.81
25019,6.32
25032,22.65
25046,-30.69
25059,6.96
25072,24.18
25086,-30.13
25099,6.60
25112,22.88
25126,-29.81
25139,7.77
25152,21.82
25166,-30.56
25179,7.88
25192,23.73
25206,-30.18
25219,7.20
25232,21.16
25246,-30.18
25259,9.39
25273,23.03
25286,-31.35
25299,7.23
25312,21.86
25326,-29.06
25339,8.43
25353,22.16
25366,-30.79
25379,7.22
25392,23.23
25406,-30.10
25419,7.57
25433,22.26
25446,-30.95
25459,9.22
25473,23.24
25486,-32.10
25499,7.80
25512,22.65
25526,-30.86
25539,9.89
25553,22.60
25566,-33.24
25579,8.90
25592,24.40
25606,-31.86
25619,6.82
25632,24.87
25646,-32.11
25659,9.11
25673,22.62
25686,-34.43
25699,11.60
25712,25.54
25726,-35.50
25739,8.23
25753,25.97
25766,-34.14
25779,8.38
25792,25.78
25806,-34.36
25819,9.13
25832,26.30
25846,-35.39
25859,9.01
25872,25.05
25886,-35.56
25899,10.48
25912,27.43
25926,-36.73
25939,8.29
25953,27.35
25966,-34.90
25979,7.44
25992,27.28
26006,-35.55
26019,7.61
26032,29.18
26046,-35.56
26059,6.20
26073,29.72
26086,-37.24
26099,7.01
26112,29.59
26125,-36.43
26139,8.91
26152,28.44
26166,-39.64
26179,9.91
26192,31.21
26206,-40.09
26219,9.40
26232,29.72
26245,-41.00
26259,10.79
26273,32.38
26286,-41.48
26299,8.06
26312,32.06
26326,-39.86
26339,8.14
26352,31.94
26366,-41.36
26379,9.17
26392,34.37
26406,-43.33
26419,9.05
26432,33.14
26445,-44.42
26459,12.42
26472,34.28
26486,-47.24
26499,11.44
26512,35.96
26526,-46.06
26539,10.38
26552,35.13
26566,-46.74
26579,10.47
26593,37.38
26606,-45.78
26619,8.69
26632,36.64
26646,-47.04
26659,9.43
26672,38.43
26691,-47.49
26699,9.72
26712,39.34
26725,-50.34
26739,10.79
26752,38.50
26765,-50.59
26779,12.11
26792,41.69
26805,-52.31
26819,10.36
26832,38.98
26846,-52.49
26859,14.19
26872,43.15
26886,-56.23
26899,11.57
26912,41.96
26926,-53.88
26939,12.55
26952,43.75
26965,-56.85
26979,11.53
26993,44.72
27006,-55.38
27019,12.15
27032,44.15
27046,-58.59
27059,13.08
27072,46.05
27086,-58.22
27099,12.61
27112,47.03
27126,-60.35
27139,11.71
27152,48.08
27166,-59.88
27179,13.42
27192,47.48
27206,-62.22
27219,14.45
27232,48.03
27246,-62.50
27259,14.10
27272,49.08
27286,-63.26
27299,13.16
27312,50.59
27326,-62.25
27339,11.02
27352,51.11
27366,-63.24
27379,11.69
27392,51.91
27406,-63.16
27419,13.71
27432,50.18
27446,-67.53
27459,13.90
27472,56.27
27486,-66.21
27499,11.50
27512,51.41
27526,-66.35
27539,13.89
27552,56.40
27565,-67.14
27579,9.85
27592,55.45
27605,-68.20
27619,12.31
27632,58.53
27646,-68.83
27659,10.57
27672,56.94
27686,-69.05
27699,10.88
27712,59.12
27726,-68.84
27739,11.23
27752,57.50
27766,-70.37
27779,10.44
27792,62.19
27806,-70.68
27819,8.49
27832,60.17
27846,-70.74
27859,11.56
27872,61.96
27886,-72.60
27899,8.57
27912,63.25
27926,-71.80
27939,8.77
27952,63.72
27966,-73.17
27979,8.57
27992,66.48
28006,-73.91
28019,5.90
28032,66.86
28046,-72.21
28059,5.38
28072,67.40
28086,-72.87
28099,4.92
28112,67.75
28125,-71.24
28139,2.87
28152,68.02
28165,-70.59
28179,2.83
28192,67.82
28205,-72.21
28219,3.40
28232,70.79
28245,-72.19
28258,0.79
28272,71.23
28285,-74.17
28299,2.03
28312,72.99
28326,-73.74
28339,0.84
28352,74.44
28366,-75.37
28379,-1.90
28392,76.46
28406,-73.93
28419,0.00
28432,74.21
28446,-76.53
28459,1.55
28472,77.29
28486,-77.93
28499,-1.75
28512,79.97
28526,-77.71
28539,-2.36
28552,79.34
28565,-77.36
28579,-1.07
28592,80.43
28606,-79.38
28619,-3.20
28632,81.49
28646,-78.20
28659,-2.93
28672,83.58
28686,-81.12
28699,-3.04
28712,83.37
28726,-81.10
28739,-1.93
28752,84.90
28765,-82.54
28779,-4.26
28792,86.76
28806,-82.43
28819,-5.37
28832,89.05
28846,-82.52
28859,-6.27
28872,88.83
28886,-84.11
28899,-7.06
28912,92.87
28926,-84.23
28939,-7.39
28952,90.40
28966,-85.51
28979,-4.85
28992,93.32
29006,-87.89
29019,-7.04
29032,94.31
29046,-87.81
29059,-6.53
29072,95.29
29086,-87.78
29099,-7.49
29112,95.96
29126,-90.46
29139,-7.99
29152,99.80
29166,-89.80
29179,-7.74
29192,97.30
29205,-93.22
29219,-6.31
29232,102.33
29245,-94.31
29258,-8.33
29272,102.07
29286,-94.06
29299,-8.56
29313,103.07
29326,-93.79
29339,-10.05
29352,104.79
29366,-95.30
29379,-12.28
29392,108.98
29406,-93.96
29419,-14.06
29433,107.15
29446,-96.16
29459,-12.38
29472,110.17
29486,-96.36
29499,-11.89
29513,107.76
29526,-98.45
29539,-11.08
29552,112.93
29566,-100.74
29579,-14.67
29592,114.95
29606,-99.64
29619,-14.32
29632,114.38
29646,-101.15
29659,-13.90
29672,115.99
29686,-101.68
29699,-15.64
29712,117.83
29726,-101.42
29739,-17.25
29752,119.61
29766,-102.51
29779,-17.27
29792,118.62
29806,-102.06
29819,-15.73
29833,121.64
29846,-106.79
29859,-19.83
29872,126.21
29886,-102.56
29899,-20.60
29912,122.18
29926,-105.72
29939,-21.14
29952,130.82
29966,-103.67
29979,-25.91
29992,125.82
30006,-104.57
30019,-21.78
30032,130.07
30046,-105.93
30059,-25.82
30072,131.02
30086,-104.04
30099,-27.56
30112,131.17
30126,-104.42
30139,-27.51
30152,133.15
30166,-104.51
30179,-28.96
30192,134.22
30206,-105.62
30219,-28.96
30232,134.01
30246,-107.20
30259,-28.35
30272,140.71
30286,-109.58
30299,-32.29
30312,137.37
30326,-107.07
30339,-28.12
30352,139.00
30366,-111.20
30379,-31.37
30392,141.87
30406,-108.32
30419,-32.06
30432,141.59
30446,-111.67
30459,-33.59
30472,145.95
30486,-109.43
30499,-34.92
30512,144.52
30526,-112.40
30539,-33.67
30552,147.47
30566,-114.11
30579,-30.75
30592,145.98
30606,-118.41
30619,-30.70
30632,151.59
30646,-117.40
30659,-34.31
30672,150.39
30686,-119.45
30699,-31.55
30712,153.53
30725,-120.33
30739,-32.18
30752,153.17
30766,-123.47
30779,-33.66
30792,157.25
30806,-119.53
30819,-35.14
30832,154.72
30846,-123.57
30859,-34.82
30872,160.43
30886,-121.11
30899,-37.63
30912,157.16
30926,-122.83
30939,-36.99
30952,161.47
30966,-121.73
30979,-38.76
30992,161.32
31006,-124.96
31019,-38.26
31032,164.19
31046,-125.34
31059,-38.56
31072,164.66
31086,-125.93
31099,-38.97
31112,164.39
31126,-127.30
31139,-38.41
31152,168.14
31166,-126.58
31179,-41.50
31192,167.35
31206,-129.23
31219,-39.93
31232,170.77
31246,-129.05
31259,-41.06
31272,171.36
31286,-130.72
31299,-42.35
31312,171.79
31325,-130.48
31339,-40.28
31352,173.80
31366,-132.87
31379,-43.32
31392,174.77
31406,-130.28
31419,-43.71
31432,174.43
31446,-132.94
31459,-42.05
31472,177.22
31486,-134.28
31499,-43.61
31512,178.19
31526,-135.72
31539,-43.56
31552,179.17
31566,-134.59
31579,-44.53
31592,181.44
31606,-136.65
31619,-46.96
31632,181.40
31646,-134.40
31659,-45.90
31672,182.88
31685,-136.72
31699,-47.59
31712,183.64
31726,-136.58
31739,-47.54
31752,185.18
31765,-137.37
31779,-47.73
31792,186.07
31806,-139.62
31819,-46.21
31832,185.72
31846,-140.28
31859,-47.25
31872,190.34
31886,-140.22
31899,-51.60
31912,188.83
31926,-137.99
31939,-49.11
31952,188.03
31966,-139.74
31979,-48.85
31992,190.72
32006,-141.48
32019,-51.05
32032,192.00
32045,-141.17
32059,-51.84
32072,194.03
32086,-139.54
32099,-53.99
32112,192.08
32126,-139.74
32139,-53.91
32152,195.22
32166,-139.57
32179,-55.71
32192,194.37
32206,-138.58
32219,-56.42
32232,196.31
32246,-139.50
32259,-58.60
32272,197.34
32286,-137.49
32299,-59.45
32312,197.92
32326,-138.89
32339,-60.11
32352,198.70
32366,-139.06
32379,-58.89
32392,199.99
32406,-141.00
32419,-61.21
32432,201.84
32446,-141.12
32459,-59.93
32472,201.69
32485,-140.44
32499,-61.74
32512,201.49
32526,-139.56
32539,-63.49
32552,202.54
32566,-137.37
32579,-65.41
32592,204.23
32606,-138.63
32619,-66.32
32632,203.83
32646,-139.13
32659,-63.85
32672,204.88
32686,-141.07
32699,-64.78
32712,206.94
32726,-141.82
32739,-66.51
32752,208.01
32766,-142.36
32779,-66.61
32792,211.98
32806,-143.50
32819,-68.05
32832,208.53
32846,-143.81
32859,-64.50
32872,212.65
32885,-145.55
32899,-69.88
32912,212.44
32926,-142.57
32939,-67.44
32952,212.25
32965,-146.47
32979,-69.65
32992,216.43
33006,-143.59
33019,-69.89
33032,212.79
33046,-146.62
33059,-69.82
33072,218.15
33085,-143.85
33098,-72.58
33112,214.93
33125,-145.21
33139,-71.56
33152,218.35
33165,-144.53
33178,-73.06
33192,215.81
33206,-142.62
33219,-74.51
33232,218.51
33245,-144.34
33259,-74.97
33272,219.91
33285,-143.70
33299,-75.48
33312,218.57
33326,-145.20
33339,-75.26
33352,221.89
33366,-142.02
33379,-80.51
33392,219.53
33406,-139.35
33419,-80.14
33432,219.26
33446,-138.35
33459,-80.24
33472,220.44
33486,-140.41
33499,-82.74
33512,221.68
33526,-138.31
33539,-82.18
33552,222.14
33566,-139.00
33579,-84.39
33592,221.32
33606,-137.15
33619,-83.26
33632,221.54
33646,-138.50
33659,-84.51
33672,224.00
33686,-138.71
33699,-85.43
33712,223.87
33726,-138.69
33739,-86.70
33752,225.30
33765,-136.56
33779,-88.61
33792,226.13
33805,-138.86
33818,-87.99
33832,227.16
33845,-141.42
33859,-85.05
33872,229.75
33886,-143.87
33899,-87.30
33912,230.09
33925,-143.39
33939,-88.65
33952,232.66
33965,-140.66
33979,-90.42
33992,229.94
34005,-142.66
34019,-89.03
34032,233.33
34046,-140.39
34059,-93.64
34072,233.24
34086,-141.27
34099,-93.06
34112,234.24
34126,-139.80
34139,-92.50
34152,232.92
34166,-140.83
34179,-94.45
34192,233.20
34206,-137.18
34219,-94.08
34232,231.78
34246,-138.57
34259,-94.76
34272,235.10
34285,-140.12
34299,-96.47
34312,235.52
34326,-137.47
34339,-96.37
34352,234.38
34365,-140.27
34379,-96.48
34392,237.53
34406,-138.34
34419,-98.63
34432,235.94
34446,-137.81
34459,-100.01
34472,238.72
34486,-135.74
34499,-102.23
34512,235.59
34526,-134.81
34539,-103.62
34552,238.15
34566,-129.63
34579,-104.52
34592,234.03
34606,-132.12
34619,-106.91
34632,237.62
34646,-128.80
34659,-106.72
34672,238.40
34685,-130.67
34699,-110.52
34712,239.51
34726,-128.62
34739,-112.11
34752,239.62
34766,-123.91
34779,-112.06
34792,235.22
34806,-127.94
34819,-111.16
34832,240.72
34846,-123.81
34859,-115.94
34872,237.69
34885,-122.30
34899,-117.69
34912,240.05
34926,-120.84
34939,-118.45
34952,239.23
34966,-121.66
34979,-119.54
34992,242.37
35005,-118.51
35019,-123.87
35032,238.68
35046,-117.08
35059,-121.82
35072,241.32
35085,-117.57
35099,-124.06
35112,240.05
35125,-113.50
35139,-127.87
35152,239.33
35166,-111.46
35179,-127.91
35192,239.09
35205,-108.16
35218,-129.53
35232,236.17
35246,-107.35
35259,-131.77
35272,237.85
35285,-104.00
35299,-129.89
35312,235.66
35325,-107.14
35339,-133.65
35352,239.67
35366,-103.63
35379,-134.73
35392,238.58
35406,-104.09
35419,-134.03
35432,239.46
35446,-104.42
35459,-139.17
35472,239.94
35485,-98.47
35499,-138.89
35512,240.31
35526,-101.65
35539,-140.22
35552,239.43
35565,-97.08
35579,-144.81
35592,238.30
35605,-91.25
35619,-141.00
35632,235.18
35645,-93.87
35659,-147.92
35672,233.82
35685,-85.87
35699,-141.16
35712,235.08
35725,-92.08
35739,-151.42
35752,237.87
35765,-83.80
35779,-149.55
35792,234.42
35805,-85.42
35819,-153.56
35832,235.62
35845,-79.19
35859,-150.44
35872,232.16
35885,-82.34
35899,-154.59
35912,233.06
35925,-79.09
35939,-152.76
35952,234.13
35965,-78.24
35979,-155.72
35992,233.23
36005,-75.60
36019,-160.95
36032,231.77
36045,-72.22
36059,-154.54
36072,231.33
36086,-74.95
36099,-161.68
36112,232.68
36125,-69.65
36139,-160.11
36152,229.74
36165,-68.40
36179,-163.13
36192,229.87
36205,-65.28
36219,-164.33
36232,229.56
36245,-64.31
36259,-166.07
36272,229.21
36285,-62.66
36299,-165.36
36312,227.47
36325,-61.80
36339,-166.63
36352,228.26
36365,-59.18
36379,-170.40
36392,226.81
36405,-54.06
36419,-170.96
36432,223.54
36445,-53.91
36459,-169.58
36472,224.52
36485,-54.13
36499,-170.64
36512,224.22
36525,-53.25
36539,-172.31
36552,224.19
36565,-48.69
36579,-175.01
36592,222.75
36605,-47.26
36619,-176.54
36632,221.62
36645,-42.75
36659,-177.69
36672,217.99
36685,-39.50
36699,-176.71
36712,216.08
36725,-39.09
36739,-178.92
36752,215.49
36765,-34.88
36779,-179.19
36792,214.48
36805,-33.54
36819,-181.06
36832,211.62
36845,-31.67
36859,-179.93
36872,211.81
36886,-27.66
36899,-184.36
36912,209.57
36925,-24.93
36939,-184.79
36952,207.39
36965,-21.63
36979,-184.04
36992,205.94
37005,-19.86
37019,-187.29
37032,203.36
37045,-15.40
37059,-185.74
37072,200.53
37085,-15.20
37099,-185.00
37112,200.37
37125,-12.43
37139,-189.72
37152,197.70
37165,-6.82
37179,-188.21
37192,194.86
37205,-6.02
37219,-188.65
37232,192.45
37245,-2.22
37259,-189.81
37272,188.16
37285,2.73
37299,-187.68
37312,185.13
37325,2.79
37339,-190.63
37352,185.80
37365,9.10
37379,-195.03
37392,183.40
37405,11.42
37419,-192.64
37432,182.12
37445,10.82
37459,-194.90
37472,180.56
37485,17.20
37499,-194.81
37512,175.64
37525,18.05
37539,-193.54
37552,177.19
37565,19.52
37579,-199.57
37592,173.30
37605,26.57
37619,-194.73
37632,173.21
37645,22.05
37659,-199.45
37672,171.87
37685,27.46
37699,-196.74
37712,171.76
37725,27.62
37739,-200.06
37752,169.11
37765,31.47
37779,-201.64
37792,168.00
37805,36.11
37819,-200.60
37832,163.50
37845,36.24
37859,-200.13
37872,161.61
37885,39.09
37899,-200.26
37912,161.50
37925,42.03
37939,-203.78
37952,157.03
37965,48.05
37979,-204.65
37992,156.74
38005,47.96
38019,-202.57
38032,153.74
38045,48.65
38059,-204.24
38072,152.68
38085,55.34
38098,-206.21
38112,151.83
38125,53.52
38139,-207.09
38152,150.76
38165,57.32
38179,-206.28
38192,148.56
38205,59.90
38219,-208.76
38232,146.75
38245,63.36
38259,-209.76
38272,143.17
38285,66.35
38299,-206.91
38312,141.38
38325,66.87
38339,-209.86
38352,139.49
38365,72.00
38379,-208.68
38392,135.63
38405,72.80
38419,-209.20
38432,134.58
38445,77.19
38459,-210.81
38472,131.86
38485,80.53
38499,-213.05
38512,130.85
38525,82.56
38539,-211.32
38552,126.58
38565,85.10
38579,-211.02
38592,125.39
38605,88.22
38619,-213.68
38632,120.86
38645,93.48
38659,-212.78
38672,120.20
38685,92.88
38699,-213.06
38712,118.94
38725,94.05
38739,-212.92
38752,118.37
38765,95.62
38779,-213.78
38792,116.78
38805,99.03
38819,-215.04
38832,111.84
38845,104.32
38859,-214.87
38872,110.60
38885,105.38
38899,-216.18
38912,108.19
38925,108.75
38939,-216.02
38952,105.95
38965,111.32
38979,-215.30
38992,101.67
39005,112.98
39019,-213.96
39032,100.54
39045,115.15
39059,-217.34
39072,101.43
39085,117.49
39099,-216.42
39112,95.84
39125,119.01
39139,-214.94
39152,96.81
39165,122.01
39179,-218.49
39192,92.53
39205,124.79
39219,-216.88
39232,92.46
39245,125.76
39259,-216.10
39272,89.26
39285,126.87
39299,-218.60
39312,88.50
39325,133.27
39339,-217.35
39352,83.64
39365,131.85
39379,-218.57
39392,85.39
39405,137.63
39419,-219.26
39432,76.32
39445,140.56
39459,-216.89
39472,79.06
39485,143.21
39499,-221.31
39512,69.21
39526,148.24
39539,-213.97
39552,70.90
39566,146.45
39579,-220.64
39592,70.19
39605,150.22
39619,-217.76
39632,66.57
39645,151.83
39659,-217.80
39672,64.25
39685,155.14
39699,-218.88
39712,62.52
39725,157.10
39739,-220.15
39752,60.56
39765,161.04
39779,-218.71
39792,56.34
39805,162.37
39819,-218.79
39832,53.91
39845,165.11
39859,-214.68
39872,48.59
39885,164.74
39899,-216.31
39912,52.08
39927,168.51
39938,-219.05
39952,46.92
39965,169.60
39979,-215.02
39992,46.18
40005,170.05
40019,-214.47
40032,42.53
40045,169.58
40059,-212.33
40072,43.96
40085,170.10
40099,-212.78
40112,40.63
40125,170.29
40139,-210.01
40152,40.32
40165,169.59
40179,-209.41
40192,39.94
40205,170.09
40219,-210.08
40232,38.19
40245,170.39
40259,-207.05
40272,38.08
40285,169.66
40299,-207.78
40312,36.72
40325,170.10
40339,-205.97
40352,35.65
40365,170.14
40379,-205.16
40392,35.76
40405,169.52
40419,-206.16
40432,35.26
40445,171.68
40459,-204.92
40472,32.82
40485,170.01
40499,-203.42
40512,34.34
40525,171.14
40539,-204.90
40552,31.77
40565,172.28
40579,-203.54
40592,31.53
40605,171.22
40619,-201.16
40632,29.55
40645,171.10
40659,-200.97
40672,30.78
40685,171.73
40699,-203.84
40712,29.32
40725,174.50
40739,-200.61
40752,26.77
40765,171.77
40779,-198.87
40792,27.62
40805,171.79
40819,-197.51
40832,23.75
40845,170.88
40859,-193.76
40872,24.75
40885,170.37
40899,-195.12
40912,23.66
40925,170.16
40939,-193.52
40952,23.18
40965,170.54
40979,-192.14
40992,21.39
41005,169.99
41019,-192.21
41032,22.63
41045,169.56
41059,-189.48
41072,17.37
41085,169.19
41099,-184.46
41112,18.06
41125,167.04
41139,-186.78
41152,17.68
41165,168.13
41179,-183.77
41192,16.16
41205,167.26
41219,-182.41
41232,14.96
41245,166.25
41258,-180.07
41272,12.67
41286,165.51
41299,-175.81
41312,11.31
41325,163.45
41339,-173.75
41352,9.92
41365,162.18
41379,-172.44
41392,11.04
41405,162.92
41419,-173.46
41432,9.45
41445,162.47
41459,-171.36
41472,8.66
41485,163.53
41499,-170.69
41512,6.72
41525,162.27
41539,-168.27
41552,5.52
41565,161.44
41578,-165.79
41592,5.70
41605,160.41
41619,-165.05
41632,2.73
41645,159.13
41659,-160.66
41672,2.88
41685,159.32
41699,-161.35
41712,1.23
41725,157.97
41739,-159.24
41752,0.99
41765,158.04
41778,-156.63
41792,-0.37
41805,155.99
41819,-156.52
41832,-1.16
41845,157.72
41859,-154.21
41872,-3.49
41885,156.10
41899,-151.57
41912,-3.80
41925,155.31
41939,-153.16
41952,-3.38
41965,157.94
41978,-151.56
41992,-7.78
42005,156.06
42019,-146.81
42032,-8.05
42045,154.80
42059,-146.50
42072,-8.00
42086,152.78
42099,-143.93
42112,-9.89
42125,152.62
42139,-139.45
42152,-12.60
42165,150.58
42178,-137.93
42192,-12.62
42205,148.98
42219,-136.51
42232,-11.87
42245,149.66
42259,-135.57
42272,-15.59
42285,148.83
42299,-134.28
42312,-14.12
42325,151.48
42339,-135.51
42352,-18.46
42365,150.25
42378,-129.45
42392,-19.59
42405,147.39
42419,-126.03
42432,-19.90
42446,144.30
42458,-125.39
42472,-20.54
42485,146.93
42498,-123.05
42512,-24.16
42525,143.75
42539,-120.03
42552,-22.20
42565,143.21
42578,-118.82
42592,-26.47
42605,142.97
42619,-116.06
42632,-25.82
42645,141.87
42659,-113.87
42672,-29.06
42685,139.10
42699,-108.77
42712,-27.98
42725,137.91
42739,-109.84
42752,-29.84
42765,137.11
42778,-105.93
42792,-31.28
42805,137.19
42819,-102.54
42832,-34.57
42845,134.17
42858,-99.66
42872,-34.46
42885,133.48
42898,-98.09
42912,-34.83
42925,133.38
42938,-98.32
42952,-36.15
42965,133.03
42978,-94.18
42992,-39.30
43005,129.74
43019,-87.24
43032,-40.38
43045,125.14
43058,-84.73
43072,-40.74
43085,126.00
43098,-84.31
43112,-42.46
43125,125.60
43138,-82.94
43152,-41.72
43165,123.86
43178,-79.78
43192,-45.05
43205,122.46
43218,-75.85
43232,-46.06
43245,121.98
43258,-76.34
43272,-46.87
43285,123.24
43299,-73.56
43312,-50.63
43325,121.70
43338,-70.14
43352,-50.49
43365,121.87
43378,-71.67
43392,-51.90
43405,122.25
43419,-68.58
43432,-53.57
43445,120.05
43458,-63.35
43472,-55.40
43485,115.61
43498,-59.56
43512,-56.91
43525,116.76
43539,-58.37
43552,-57.99
43565,114.21
43578,-55.20
43592,-59.73
43605,113.16
43618,-50.62
43632,-60.78
43645,110.24
43658,-48.90
43672,-63.75
43685,109.92
43698,-44.14
43712,-63.38
43725,107.47
43738,-42.77
43752,-65.62
43765,105.47
43778,-39.78
43792,-65.04
43805,105.44
43818,-37.97
43832,-68.03
43845,102.86
43859,-33.94
43872,-69.38
43885,103.89
43898,-32.41
43912,-70.77
43925,99.86
43938,-28.54
43952,-71.96
43965,100.01
43978,-27.20
43992,-71.77
44005,102.10
44018,-28.83
44032,-78.33
44045,100.77
44058,-21.37
44072,-73.19
44085,97.48
44099,-21.39
44112,-80.90
44125,95.47
44138,-12.55
44152,-80.06
44165,94.67
44178,-15.90
44192,-80.04
44205,97.37
44218,-15.00
44232,-84.71
44245,94.51
44258,-7.95
44272,-83.15
44285,92.19
44298,-6.18
44312,-88.77
44325,88.85
44338,0.77
44352,-86.99
44365,87.36
44378,2.64
44392,-90.82
44405,83.34
44418,7.56
44432,-89.21
44445,81.66
44458,11.24
44472,-95.43
44485,81.89
44498,11.73
44512,-90.61
44525,83.06
44538,8.48
44552,-97.37
44565,82.23
44578,21.56
44592,-99.48
44605,76.60
44619,22.27
44632,-98.30
44645,74.39
44658,23.36
44672,-100.15
44685,76.13
44698,29.40
44712,-102.60
44725,67.35
44738,36.94
44752,-104.25
44765,63.79
44778,41.70
44792,-102.23
44805,61.24
44818,41.10
44832,-106.17
44845,62.95
44858,45.41
44872,-105.63
44885,60.54
44898,46.53
44912,-109.81
44925,58.82
44938,53.39
44952,-109.53
44965,56.37
44978,54.25
44992,-112.43
45005,55.15
45018,59.87
45032,-114.68
45045,52.85
45058,64.08
45072,-115.77
45085,49.84
45099,66.04
45112,-116.11
45125,48.90
45138,68.80
45152,-117.21
45165,46.83
45178,71.96
45192,-118.70
45205,44.92
45218,74.67
45232,-119.63
45245,44.83
45258,76.72
45272,-121.82
45285,41.89
45298,79.64
45312,-119.58
45325,41.35
45338,78.95
45352,-122.38
45365,43.15
45378,81.27
45392,-126.13
45405,42.15
45419,84.74
45432,-124.68
45445,42.60
45458,82.96
45472,-129.49
45485,44.48
45498,85.31
45512,-128.70
45525,45.17
45538,84.99
45552,-131.94
45565,44.89
45578,88.00
45592,-131.98
45605,44.20
45618,87.98
45632,-132.24
45645,42.30
45658,89.86
45672,-130.86
45685,41.85
45698,89.45
45712,-132.15
45725,41.58
45738,90.58
45752,-131.91
45765,42.15
45778,90.26
45792,-132.88
45805,41.58
45818,91.33
45832,-132.10
45845,40.72
45858,91.04
45872,-131.51
45885,40.98
45898,90.33
45912,-131.48
45925,40.40
45938,90.59
45952,-130.27
45965,40.28
45978,90.66
45992,-130.88
46005,39.35
46018,90.50
46032,-130.06
46045,40.27
46058,90.66
46072,-130.63
46085,39.63
46098,90.32
46112,-129.74
46125,39.30
46138,90.10
46152,-129.23
46165,39.76
46178,90.14
46192,-131.17
46205,40.81
46218,91.19
46232,-131.66
46245,39.19
46258,92.06
46272,-130.28
46285,39.13
46298,91.15
46312,-131.54
46325,40.12
46338,92.15
46352,-131.87
46365,39.33
46378,92.05
46392,-131.31
46405,39.74
46418,91.90
46432,-131.75
46445,39.50
46458,91.85
46472,-130.85
46485,38.98
46498,91.46
46512,-130.24
46525,38.84
46538,91.78
46552,-129.83
46565,37.32
46578,91.09
46592,-128.64
46605,38.73
46618,91.23
46632,-130.43
46645,38.50
46658,91.71
46672,-130.28
46685,38.44
46698,91.89
46712,-129.81
46725,37.84
46738,92.24
46752,-129.80
46765,37.20
46778,92.01
46792,-130.01
46805,38.61
46818,92.49
46832,-130.30
46845,36.66
46858,92.41
46872,-128.33
46885,36.28
46898,91.29
46912,-127.05
46925,37.05
46938,90.08
46952,-128.53
46965,37.19
46978,91.82
46992,-128.61
47005,37.66
47018,91.96
47032,-128.76
47045,34.45
47058,91.92
47072,-125.84
47085,36.09
47098,90.63
47112,-125.95
47125,34.65
47138,89.50
47152,-125.34
47165,36.14
47178,91.10
47192,-126.43
47205,34.70
47218,90.85
47232,-124.95
47245,33.84
47258,90.07
47273,-122.95
47285,33.70
47298,88.54
47312,-122.65
47325,33.81
47338,89.75
47352,-123.66
47365,34.05
47378,89.44
47391,-123.35
47405,33.84
47418,89.10
47432,-123.74
47445,34.43
47458,90.86
47472,-122.88
47485,30.21
47498,89.55
47512,-120.39
47525,33.82
47538,89.03
47552,-123.13
47565,31.10
47578,90.14
47592,-121.39
47605,34.15
47618,89.44
47632,-122.65
47645,29.93
47658,89.02
47672,-117.81
47685,31.63
47698,88.02
47712,-119.45
47725,29.33
47738,87.88
47752,-117.39
47765,31.19
47778,87.83
47792,-118.80
47805,30.04
47818,87.79
47832,-118.11
47845,30.65
47858,87.91
47872,-118.19
47885,29.74
47898,88.48
47912,-117.77
47925,29.26
47938,87.94
47952,-117.59
47965,29.88
47978,88.24
47992,-117.69
48005,28.79
48018,88.58
48032,-116.52
48045,27.81
48058,87.89
48072,-116.47
48085,29.59
48098,88.34
48111,-117.93
48125,28.27
48138,88.14
48152,-114.75
48165,27.01
48178,86.73
48192,-113.67
48205,27.69
48218,86.83
48232,-114.18
48245,25.75
48258,86.49
48272,-111.57
48285,26.76
48298,85.46
48312,-111.22
48325,24.22
48338,85.08
48352,-108.13
48365,23.86
48378,83.84
48392,-108.65
48405,25.56
48418,84.29
48432,-109.21
48445,22.93
48458,84.88
48472,-106.99
48485,23.72
48498,83.47
48512,-106.97
48525,22.24
48538,83.27
48552,-104.62
48565,22.74
48578,82.05
48592,-104.76
48605,21.38
48618,82.66
48632,-102.82
48645,20.81
48658,81.44
48672,-102.66
48685,20.98
48698,81.82
48712,-100.17
48725,17.19
48738,79.86
48752,-97.85
48765,20.52
48778,80.22
48792,-99.73
48805,16.14
48818,79.70
48832,-95.00
48845,18.03
48858,79.43
48872,-97.73
48885,16.81
48898,79.25
48912,-95.74
48925,16.30
48938,78.99
48952,-93.73
48965,15.64
48978,78.39
48991,-94.91
49005,15.22
49018,79.47
49032,-93.66
49045,14.16
49058,78.81
49072,-92.64
49085,14.43
49098,78.94
49112,-92.81
49125,12.57
49138,78.26
49152,-90.39
49165,12.96
49178,78.23
49192,-89.50
49205,10.54
49218,76.73
49232,-87.96
49245,11.98
49258,77.69
49272,-88.92
49285,10.27
49298,77.05
49312,-87.09
49325,10.17
49338,77.26
49352,-85.57
49365,8.24
49378,74.74
49392,-82.96
49405,8.56
49418,75.26
49432,-82.06
49445,5.81
49458,73.98
49472,-80.66
49485,8.07
49498,75.38
49512,-82.13
49525,3.89
49538,74.37
49552,-77.56
49565,6.43
49578,73.20
49592,-79.19
49605,2.57
49618,73.98
49632,-75.39
49645,3.74
49658,72.92
49672,-76.03
49687,1.07
49698,72.35
49711,-72.75
49724,1.92
49738,72.22
49751,-73.69
49765,0.03
49778,72.24
49791,-71.10
49805,-1.47
49818,71.83
49831,-69.18
49845,-1.57
49858,70.00
49872,-67.79
49885,-3.79
49898,69.93
49911,-64.23
49925,-4.14
49938,68.01
49952,-65.17
49965,-3.83
49978,69.86
49992,-62.63
50005,-8.78
50018,66.78
50032,-56.99
50045,-7.25
50058,65.63
50071,-57.37
50085,-9.90
50098,64.27
50111,-54.05
50125,-9.53
50138,64.42
50152,-53.31
50165,-10.96
50178,62.61
50192,-51.55
50205,-12.38
50218,63.81
50232,-49.43
50245,-12.97
50258,60.49
50271,-47.75
50285,-14.25
50298,62.02
50312,-44.55
50325,-16.52
50338,58.81
50351,-44.28
50365,-14.74
50378,60.47
50392,-42.49
50405,-19.38
50418,58.55
50432,-38.36
50445,-18.88
50458,57.72
50472,-38.25
50485,-20.62
50498,57.74
50511,-36.27
50525,-21.43
50538,57.33
50552,-34.38
50565,-23.43
50578,56.55
50592,-32.61
50605,-23.28
50618,55.22
50632,-30.67
50645,-26.15
50658,55.99
50671,-28.83
50685,-25.80
50698,54.77
50711,-28.48
50725,-28.49
50738,54.31
50752,-23.82
50765,-28.18
50778,52.17
50791,-21.96
50805,-33.01
50818,50.81
50832,-16.60
50845,-31.02
50858,48.50
50872,-16.89
50885,-33.50
50898,47.82
50911,-13.06
50925,-33.56
50938,46.66
50951,-11.44
50965,-36.62
50978,45.46
50991,-7.30
51005,-36.88
51018,43.06
51031,-4.78
51045,-38.55
51058,41.70
51071,-3.28
51085,-37.47
51098,41.45
51111,-1.98
51125,-41.59
51138,39.75
51151,3.25
51165,-40.63
51178,38.50
51191,3.71
51205,-44.38
51218,37.68
51232,6.64
51245,-43.28
51258,37.09
51271,8.27
51285,-44.75
51298,34.92
51311,10.41
51325,-47.57
51338,35.15
51352,14.00
51365,-46.34
51378,34.00
51392,11.54
51405,-48.50
51418,34.76
51432,17.18
51445,-51.21
51458,31.58
51472,20.37
51485,-50.49
51498,30.17
51511,22.22
51525,-54.78
51538,28.42
51552,26.99
51565,-52.15
51578,27.64
51591,25.38
51605,-55.84
51618,26.90
51632,29.42
51645,-54.95
51658,27.36
51672,29.77
51685,-58.47
51698,25.15
51712,33.27
51725,-57.49
51738,25.26
51752,34.22
51765,-59.97
51778,23.48
51791,35.50
51805,-58.51
51818,24.41
51832,36.07
51845,-61.56
51858,22.82
51872,38.67
51885,-59.89
51898,22.25
51912,38.18
51925,-61.95
51938,22.68
51952,39.67
51965,-61.48
51978,21.89
51991,39.73
52005,-62.07
52018,21.89
52032,40.72
52045,-62.97
52058,22.84
52072,40.84
52085,-64.25
52098,22.07
52111,41.67
52125,-62.87
52138,22.32
52151,41.81
52165,-65.86
52178,22.96
52192,43.55
52206,-65.78
52218,21.91
52231,43.18
52245,-65.09
52258,22.60
52271,43.07
52285,-65.60
52298,21.49
52311,43.83
52325,-64.82
52338,21.24
52351,43.43
52364,-65.59
52378,23.04
52391,43.38
52405,-66.62
52418,21.79
52431,45.46
52445,-66.94
52458,21.49
52472,45.22
52485,-66.32
52498,20.82
52512,45.10
52525,-66.27
52538,22.10
52552,45.33
52565,-68.26
52578,21.83
52592,46.07
52605,-66.97
52618,21.14
52632,45.75
52645,-67.84
52658,23.01
52671,46.09
52685,-69.01
52698,20.89
52712,46.46
52725,-66.62
52738,22.32
52751,45.40
52765,-67.85
52778,20.76
52792,45.76
52805,-66.84
52818,22.60
52831,45.79
52845,-68.51
52858,21.37
52871,46.34
52885,-67.94
52898,22.68
52911,46.38
52925,-69.21
52938,21.74
52951,46.71
52965,-68.23
52978,22.27
52991,46.75
53005,-70.10
53018,23.31
53032,47.46
53045,-70.29
53058,21.64
53071,47.74
53085,-69.86
53098,24.12
53111,47.63
53125,-71.84
53138,21.60
53151,48.16
53164,-69.06
53178,23.27
53191,47.41
53205,-71.71
53218,22.96
53231,48.34
53245,-71.15
53258,22.97
53271,48.51
53285,-71.65
53298,23.48
53312,49.09
53325,-72.55
53338,21.78
53352,49.18
53365,-68.60
53378,20.59
53391,47.39
53405,-70.21
53418,23.40
53432,49.52
53445,-72.46
53458,20.34
53472,49.65
53485,-68.91
53498,21.63
53511,48.65
53525,-71.16
53538,21.59
53552,49.22
53565,-71.16
53578,21.54
53591,49.71
53605,-70.51
53618,21.61
53631,49.12
53645,-71.18
53658,21.41
53671,49.26
53685,-70.11
53698,20.96
53711,48.69
53725,-69.06
53738,20.74
53752,48.08
53765,-69.13
53778,21.04
53791,48.35
53805,-69.93
53818,21.61
53831,49.00
53845,-70.94
53858,21.75
53871,49.43
53885,-71.03
53898,21.41
53911,49.24
53925,-70.12
53938,20.92
53952,48.91
53965,-70.42
53978,22.09
53992,49.22
54005,-71.31
54018,20.61
54032,50.27
54045,-69.93
54058,20.51
54071,49.29
54085,-70.43
54098,20.84
54111,49.64
54125,-69.68
54138,19.92
54151,49.20
54165,-69.76
54178,21.33
54191,49.35
54205,-70.32
54218,19.68
54231,49.35
54245,-68.69
54258,20.79
54272,48.79
54285,-70.01
54298,20.16
54312,49.23
54325,-69.20
54338,20.55
54352,49.06
54365,-69.59
54378,20.31
54392,49.06
54405,-69.46
54418,20.43
54431,48.79
54445,-68.03
54458,18.40
54471,48.84
54485,-67.19
54498,19.69
54511,48.44
54525,-69.47
54538,19.78
54551,49.51
54565,-67.47
54578,18.10
54591,48.03
54605,-65.90
54618,18.70
54631,47.24
54645,-65.96
54658,17.99
54672,47.12
54685,-64.40
54704,17.98
54711,46.62
54724,-65.26
54738,18.81
54751,46.70
54765,-64.72
54778,16.81
54791,46.31
54805,-62.72
54818,18.37
54831,45.56
54845,-64.61
54858,17.31
54872,46.91
54885,-64.04
54898,17.51
54911,47.00
54925,-63.29
54938,15.64
54952,46.85
54965,-63.09
54978,16.79
54992,46.98
55005,-63.94
55018,16.32
55031,47.27
55045,-62.63
55058,15.89
55071,45.92
55085,-62.51
55098,17.33
55111,46.51
55125,-64.65
55138,16.31
55151,47.72
55165,-61.53
55178,14.95
55192,45.47
55205,-61.59
55218,16.24
55231,45.88
55245,-61.50
55258,14.97
55271,45.63
55285,-60.40
55298,15.84
55312,44.93
55325,-60.13
55338,13.98
55351,44.82
55365,-59.66
55378,16.83
55392,44.80
55405,-60.89
55418,12.84
55431,45.72
55445,-57.80
55458,15.22
55471,44.24
55485,-60.20
55498,13.30
55512,45.36
55525,-58.30
55538,15.23
55551,44.95
55565,-61.20
55578,14.58
55591,45.88
55605,-59.57
55618,14.08
55632,45.09
55645,-58.59
55658,13.86
55671,44.42
55685,-58.73
55698,14.19
55711,44.66
55725,-58.62
55738,13.45
55751,45.37
55765,-58.30
55778,13.54
55792,43.85
55805,-57.82
55818,13.38
55832,44.80
55845,-55.94
55858,11.03
55871,42.92
55885,-55.55
55898,13.87
55911,43.83
55925,-57.35
55938,12.04
55951,43.98
55965,-55.91
55978,12.99
55991,43.86
56005,-57.41
56018,13.16
56031,44.05
56045,-56.27
56058,11.50
56071,43.32
56085,-54.02
56098,12.19
56112,42.29
56125,-55.16
56138,11.99
56151,42.50
56165,-53.17
56178,10.20
56191,42.33
56205,-51.86
56218,10.65
56232,41.29
56245,-52.96
56258,10.71
56271,41.90
56285,-50.95
56298,9.31
56311,40.32
56325,-48.96
56338,9.10
56351,39.41
56365,-48.91
56378,9.70
56391,39.39
56405,-48.68
56418,8.75
56432,39.22
56445,-47.73
56458,9.46
56471,38.51
56485,-47.21
56498,7.04
56511,38.63
56525,-44.45
56538,7.28
56551,37.02
56565,-44.65
56578,7.00
56591,37.14
56605,-43.33
56618,6.62
56632,36.08
56645,-42.03
56658,5.70
56671,35.44
56685,-41.18
56698,6.67
56711,35.04
56725,-41.55
56738,5.47
56751,34.91
56765,-39.62
56778,5.69
56791,33.80
56805,-38.83
56818,4.40
56832,33.04
56845,-37.06
56858,4.91
56871,32.13
56885,-36.32
56898,3.52
56911,31.57
56925,-34.94
56938,4.07
56951,31.92
56965,-35.78
56978,2.87
56991,31.46
57005,-33.49
57018,2.52
57031,30.77
57045,-33.09
57058,3.00
57071,30.28
57085,-34.00
57098,2.77
57111,30.81
57125,-32.54
57138,2.32
57151,29.55
57165,-30.59
57178,0.64
57191,28.04
57206,-28.01
57218,0.91
57231,27.06
57244,-28.22
57258,0.62
57271,27.81
57284,-27.38
57298,-0.80
57311,26.80
57325,-25.76
57338,-0.19
57351,26.24
57365,-25.65
57378,-1.09
57391,25.70
57405,-24.34
57418,-0.98
57431,25.36
57444,-24.31
57458,-0.81
57471,24.77
57485,-22.72
57498,-2.97
57511,23.68
57525,-19.94
57538,-2.41
57551,23.34
57565,-21.07
57578,-3.42
57591,23.07
57605,-18.81
57618,-3.82
57631,22.29
57645,-17.65
57658,-4.01
57671,21.16
57685,-17.49
57698,-4.35
57711,21.20
57725,-15.85
57738,-5.14
57751,21.00
57765,-15.02
57778,-6.17
57791,19.91
57805,-13.84
57818,-5.71
57831,19.70
57845,-13.26
57858,-6.49
57871,18.92
57885,-12.28
57898,-6.53
57911,18.65
57925,-12.11
57938,-6.24
57951,18.55
57964,-12.31
57978,-7.06
57991,18.94
58005,-9.71
58018,-9.53
58031,16.79
58045,-6.76
58058,-8.58
58071,15.71
58084,-7.20
58098,-8.77
58111,14.58
58124,-5.37
58138,-9.44
58151,14.79
58165,-3.29
58178,-11.24
58191,12.77
58204,-2.76
58218,-9.43
58231,13.29
58244,-2.96
58258,-11.11
58271,12.66
58285,-1.00
58298,-11.35
58311,12.60
58324,-0.38
58338,-12.56
58351,11.56
58364,0.95
58378,-12.02
58391,11.31
58405,1.43
58418,-12.70
58431,9.88
58444,3.27
58458,-13.12
58471,10.24
58485,3.07
58498,-13.64
58511,9.83
58525,3.45
58538,-12.30
58551,9.91
58564,3.33
58578,-14.76
58591,9.55
58604,4.43
58618,-12.65
58631,9.82
58644,4.10
58658,-14.09
58671,8.20
58685,4.71
58698,-13.53
58711,9.85
58724,4.82
58738,-13.99
58751,8.65
58764,5.28
58778,-14.46
58791,8.86
58805,5.48
58818,-14.40
58831,9.06
58844,5.77
58858,-14.36
58871,8.56
58885,6.12
58898,-15.85
58911,9.06
58925,7.40
58938,-15.60
58951,8.28
58965,6.80
58978,-15.44
58991,8.79
59005,7.00
59018,-15.65
59031,8.49
59045,6.92
59058,-15.52
59071,8.66
59084,7.14
59098,-16.20
59111,9.26
59125,7.47
59138,-16.77
59151,8.69
59164,7.67
59178,-16.13
59192,8.85
59204,8.05
59218,-17.25
59231,8.28
59244,8.75
59258,-16.41
59271,8.24
59284,8.09
59298,-16.83
59311,8.42
59325,8.53
59338,-16.62
59351,8.30
59364,8.29
59378,-16.75
59391,8.33
59404,8.39
59419,-16.67
59431,8.34
59445,8.37
59458,-16.70
59471,8.32
59484,8.36
59498,-16.70
59511,8.33
59525,8.52
59538,-17.34
59551,8.85
59565,9.55
59578,-18.57
59591,7.88
59604,10.27
59618,-17.36
59631,8.02
59645,9.39
59658,-18.12
59671,8.09
59685,9.99
59698,-17.67
59711,8.08
59724,9.85
59738,-18.56
59751,8.70
59765,10.17
59778,-18.37
59791,7.49
59804,10.11
59818,-17.85
59831,9.05
59844,10.05
59858,-19.49
59871,7.96
59884,10.63
59898,-18.16
59911,8.60
59925,10.20
59938,-18.97
59951,8.19
59965,10.51
59978,-19.23
59991,9.11
60005,10.90
60018,-19.91
60031,8.41
60045,11.03
60058,-19.27
60071,8.75
60085,10.79
60098,-19.71
60111,8.56
60125,10.94
60138,-19.45
60151,8.54
60164,11.39
60178,-19.59
60191,7.40
60205,11.55
60218,-18.43
60231,7.85
60245,10.77
60258,-19.36
60271,7.79
60285,11.47
60298,-18.73
60311,7.83
60325,10.91
60338,-18.47
60351,7.06
60364,10.67
60379,-17.73
60391,7.74
60405,10.34
60418,-17.76
60431,6.70
60445,10.19
60458,-16.76
60471,7.49
60485,10.04
60498,-18.28
60511,7.72
60525,11.02
60538,-19.57
60551,8.75
60564,12.13
60578,-21.63
60591,9.07
60605,12.99
60618,-21.83
60631,8.42
60645,12.84
60658,-20.59
60671,8.10
60685,12.04
60698,-19.89
60711,7.67
60725,12.34
60738,-20.31
60751,7.70
60765,12.75
60778,-19.42
60791,6.63
60805,11.84
60818,-18.93
60831,7.58
60844,12.03
60858,-19.52
60871,7.05
60885,12.23
60898,-19.77
60911,8.00
60925,12.56
60938,-20.53
60951,7.27
60964,12.74
60978,-19.83
60991,7.65
61005,12.65
61018,-20.93
61031,8.11
61044,13.32
61058,-21.88
61071,8.34
61085,14.00
61098,-22.56
61111,8.66
61125,14.28
61138,-22.92
61151,8.22
61164,14.52
61178,-23.12
61191,9.15
61204,14.90
61218,-24.63
61231,9.10
61245,15.70
61258,-25.03
61271,9.59
61284,15.97
61298,-25.33
61311,8.43
61325,16.71
61338,-24.65
61351,8.80
61364,15.47
61378,-25.65
61391,9.87
61404,17.51
61418,-26.09
61431,7.73
61445,16.56
61458,-24.96
61471,9.32
61485,16.94
61498,-25.82
61511,8.35
61525,17.01
61538,-26.69
61551,10.21
61565,17.81
61578,-27.27
61591,8.16
61605,17.96
61618,-26.77
61631,10.76
61644,17.93
61658,-28.73
61671,8.23
61685,18.60
61698,-26.61
61711,10.57
61724,18.07
61738,-29.17
61751,8.99
61764,18.79
61778,-27.43
61791,9.90
61804,18.23
61818,-27.71
61831,8.71
61845,17.96
61858,-26.77
61871,9.57
61885,17.97
61898,-28.15
61911,9.82
61924,18.56
61938,-28.25
61951,9.30
61965,19.25
61978,-28.54
61991,9.09
62004,19.58
62017,-28.30
62031,8.81
62045,19.28
62058,-29.02
62071,9.84
62084,19.89
62098,-28.86
62111,8.35
62124,19.42
62138,-27.78
62151,9.32
62165,19.27
62178,-29.41
62191,9.51
62204,20.18
62218,-29.95
62231,9.90
62245,20.54
62258,-30.24
62271,9.42
62285,20.64
62298,-30.57
62311,10.33
62324,20.64
62338,-30.05
62351,8.30
62365,20.29
62378,-28.82
62391,10.51
62404,20.02
62418,-31.16
62431,9.07
62444,20.86
62458,-29.34
62471,9.92
62484,19.98
62498,-29.12
62511,8.03
62524,19.72
62538,-28.81
62551,10.87
62565,20.16
62578,-31.17
62591,8.29
62604,21.63
62618,-28.79
62631,9.41
62644,19.74
62658,-30.88
62671,9.98
62685,21.90
62698,-30.27
62711,8.16
62725,20.21
62738,-30.44
62751,12.07
62764,21.52
62778,-32.41
62791,7.70
62805,21.91
62818,-29.22
62831,10.17
62844,20.36
62858,-31.96
62871,10.09
62885,22.32
62898,-30.21
62911,7.20
62924,20.73
62938,-28.97
62951,10.36
62964,21.09
62978,-31.55
62991,8.27
63004,21.74
63018,-30.25
63031,10.13
63044,21.74
63058,-31.89
63071,8.73
63084,22.81
63098,-32.13
63111,9.83
63124,23.20
63138,-33.28
63151,10.48
63164,23.04
63178,-34.41
63191,10.05
63204,24.84
63218,-33.87
63231,9.62
63244,24.46
63258,-34.87
63271,10.09
63284,24.71
63298,-34.47
63311,9.25
63324,24.88
63338,-34.06
63351,10.51
63365,24.57
63378,-35.74
63391,9.54
63405,25.46
63418,-34.96
63431,10.86
63444,25.52
63458,-37.02
63471,10.51
63485,26.06
63498,-35.76
63511,9.17
63525,25.98
63538,-33.47
63551,7.87
63564,24.62
63578,-34.28
63591,10.67
63604,25.74
63618,-36.30
63631,8.67
63644,26.20
63658,-34.35
63671,9.75
63684,25.87
63698,-36.94
63711,10.45
63724,26.95
63738,-37.37
63751,9.69
63764,27.11
63778,-35.72
63791,9.43
63804,26.14
63818,-36.03
63831,9.70
63845,26.16
63858,-35.48
63871,8.98
63884,26.28
63898,-35.99
63911,10.94
63925,26.67
63938,-37.95
63951,9.37
63964,27.35
63978,-36.12
63991,10.27
64005,26.85
64018,-37.94
64031,10.39
64044,27.53
64058,-37.74
64071,9.51
64084,28.34
64098,-36.96
64111,9.09
64125,27.45
64138,-37.20
64151,9.58
64165,27.95
64178,-37.18
64191,9.26
64204,27.71
64218,-37.15
64231,9.44
64244,27.83
64258,-37.16
64271,9.36
64284,27.77
64297,-37.18
64311,9.38
64324,28.26
64338,-39.09
64351,11.41
64364,29.08
64378,-39.48
64391,8.29
64404,28.99
64418,-37.13
64431,11.08
64445,28.11
64458,-39.64
64471,8.62
64485,29.17
64498,-38.08
64511,11.65
64524,29.10
64538,-40.95
64551,8.82
64565,30.38
64578,-37.69
64591,8.79
64604,28.97
64618,-38.88
64631,10.02
64645,29.90
64658,-40.36
64671,9.72
64685,30.34
64698,-39.27
64711,9.03
64724,29.81
64738,-38.79
64751,9.56
64764,29.83
64778,-40.79
64791,10.64
64804,30.84
64818,-40.68
64831,9.01
64844,30.43
64858,-38.58
64871,9.36
64885,29.25
64898,-38.76
64911,8.69
64924,29.44
64938,-38.53
64951,10.06
64965,29.50
64978,-38.95
64991,7.73
65004,30.08
65018,-37.04
65031,8.28
65044,28.71
65058,-36.80
65071,6.97
65084,28.68
65098,-35.18
65111,8.06
65124,27.65
65138,-35.38
65151,6.10
65164,27.70
65178,-33.92
65191,8.35
65204,27.41
65218,-36.27
65231,6.85
65244,27.85
65258,-33.24
65271,6.36
65285,26.58
65298,-33.13
65311,7.01
65324,25.94
65338,-31.99
65351,4.66
65365,24.41
65378,-25.70
65391,2.62
65404,20.02
65418,-19.59
65431,-0.42
65444,14.80
65458,-9.10
65471,-5.16
65484,8.80
65497,-2.98
65511,-1.91
65524,6.19
65538,-5.31
65551,-3.00
65564,6.70
65578,-2.61
65591,-2.96
65604,5.75
65618,-3.25
65631,-2.20
65644,6.35
65658,-3.98
65671,-3.25
65684,5.47
65698,-2.36
65711,-1.76
65724,5.21
65737,-3.49
65751,-2.49
65764,5.96
65778,-3.10
65791,-3.32
65804,5.46
65818,-1.87
65831,-2.39
65844,5.17
65858,-3.03
65871,-3.68
65884,5.56
65898,-1.85
65911,-2.04
65924,5.44
65938,-3.60
65952,-3.11
65964,6.65
65978,-5.03
65991,-2.11
66004,11.08
66018,-13.40
66031,3.52
66044,14.52
66058,-16.54
66071,-4.11
66084,13.53
66098,-2.50
66111,-5.48
66124,5.93
66137,-3.56
66151,-1.70
66164,7.17
66178,-6.11
66191,-3.70
66204,8.48
66218,-3.28
66231,-2.51
66244,7.19
66258,-5.22
66271,-4.18
66284,8.32
66298,-3.76
66311,-3.97
66324,7.71
66337,-3.22
66351,-4.37
66364,7.57
66378,-3.64
66391,-3.52
66404,7.67
66418,-4.59
66431,-4.11
66444,8.26
66458,-3.55
66471,-3.73
66485,7.59
66498,-3.66
66511,-4.73
66524,7.26
66538,-2.22
66551,-3.93
66564,6.04
66578,-2.79
66591,-3.22
66604,6.66
66618,-3.14
66631,-3.95
66644,6.47
66658,-2.52
66671,-4.07
66684,7.23
66698,-2.44
66711,-4.94
66724,6.40
66737,-1.66
66751,-4.20
66768,5.73
66777,-1.60
66791,-4.19
66804,6.59
66817,-1.89
66831,-5.43
66844,6.09
66857,-1.03
66871,-4.27
66884,6.37
66898,-1.71
66911,-5.08
66924,6.11
66938,-1.41
66951,-4.64
66964,6.34
66978,-1.45
66991,-4.80
67004,6.21
67018,-1.50
67031,-4.78
67044,6.24
67057,-1.31
67071,-5.41
67084,6.92
67098,-0.93
67111,-5.97
67124,6.49
67138,-1.41
67151,-4.68
67164,7.02
67177,-1.58
67191,-6.38
67204,6.63
67218,-0.24
67231,-5.22
67244,6.33
67258,-1.51
67271,-5.20
67284,5.67
67298,-0.22
67311,-4.51
67324,4.64
67338,-0.90
67351,-4.07
67364,6.40
67378,-1.00
67391,-6.62
67404,5.48
67418,0.51
67431,-4.25
67444,5.41
67458,-1.31
67471,-5.31
67484,5.96
67498,-0.15
67511,-5.70
67524,6.15
67538,-0.24
67551,-6.24
67564,5.90
67578,0.19
67591,-5.63
67604,6.03
67618,-0.07
67631,-6.76
67644,6.72
67658,-0.11
67671,-6.33
67684,6.67
67698,-0.54
67711,-6.43
67724,6.89
67738,0.44
67751,-7.22
67764,6.10
67778,0.57
67791,-5.90
67804,5.39
67818,0.27
67831,-5.83
67844,5.54
67858,0.41
67871,-5.59
67884,5.01
67897,0.26
67911,-4.56
67924,4.31
67938,-0.41
67951,-4.88
67964,5.88
67978,0.29
67991,-5.89
68004,4.72
68018,0.49
68031,-5.49
68044,5.50
68058,0.86
68071,-6.19
68084,5.11
68097,0.55
68111,-6.89
68124,6.63
68137,1.27
68151,-7.30
68164,6.43
68178,0.49
68191,-8.02
68204,6.71
68217,1.72
68231,-7.92
68244,7.16
68258,1.29
68271,-9.05
68284,6.61
68297,1.89
68311,-8.06
68324,7.01
68337,1.50
68351,-8.68
68364,6.73
68378,1.80
68391,-9.02
68404,7.42
68418,2.81
68431,-10.36
68444,6.53
68458,2.87
68471,-8.45
68484,7.07
68498,1.45
68511,-9.80
68524,7.31
68537,2.82
68551,-9.68
68564,7.56
68578,2.96
68591,-10.70
68604,6.02
68617,3.65
68631,-8.70
68644,6.76
68657,2.64
68671,-10.83
68684,7.30
68698,3.55
68711,-10.93
68724,8.00
68737,4.32
68751,-12.76
68764,7.24
68778,5.11
68791,-12.47
68804,8.27
68818,5.02
68831,-12.89
68844,6.72
68857,5.01
68871,-12.12
68884,8.52
68898,5.06
68911,-13.79
68924,7.31
68937,5.68
68951,-13.15
68964,8.64
68977,5.68
68991,-14.47
69004,7.67
69018,6.16
69031,-14.12
69044,8.89
69057,6.28
69071,-15.25
69084,8.00
69098,6.56
69111,-14.35
69124,8.48
69137,6.30
69151,-14.90
69164,8.21
69177,6.42
69191,-14.63
69204,8.22
69217,7.05
69231,-15.40
69244,7.75
69257,7.43
69271,-14.15
69284,6.93
