Time (ms),EMG Value
2000,43.15
2013,-21.13
2027,-23.82
2040,45.51
2053,-20.89
2067,-26.41
2080,48.33
2093,-20.35
2107,-28.80
2120,48.85
2134,-19.80
2147,-30.02
2160,51.33
2174,-21.32
2187,-31.73
2200,53.02
2214,-20.04
2227,-33.45
2240,55.99
2254,-23.55
2267,-35.92
2280,59.28
2293,-20.78
2307,-36.79
2320,58.16
2333,-23.56
2347,-36.56
2361,58.75
2373,-19.36
2386,-36.70
2400,56.66
2413,-23.19
2427,-36.66
2440,62.37
2453,-23.49
2467,-40.22
2480,63.55
2493,-22.76
2507,-40.83
2520,64.36
2533,-25.03
2547,-41.00
2560,67.46
2573,-24.73
2587,-43.13
2600,66.24
2613,-22.69
2627,-41.94
2640,64.87
2654,-24.27
2667,-43.41
2680,70.96
2694,-26.95
2707,-46.30
2720,73.95
2733,-26.24
2747,-43.75
2760,56.66
2773,-8.60
2787,-35.15
2800,51.09
2813,-34.89
2827,-37.21
2840,82.39
2853,-21.90
2867,-50.76
2880,65.73
2893,-30.22
2907,-45.62
2920,76.84
2934,-23.03
2947,-45.77
2960,74.46
2973,-32.21
2987,-51.51
3000,81.66
3014,-28.23
3027,-49.75
3040,75.61
3053,-23.57
3067,-46.25
3080,61.61
3093,-18.81
3107,-38.03
3120,60.33
3133,-23.94
3147,-39.88
3160,63.11
3173,-20.52
3187,-38.67
3200,56.47
3213,-20.23
3227,-35.44
3240,53.58
3253,-17.52
3267,-32.24
3280,48.75
3293,-17.08
3307,-30.01
3320,43.79
3333,-14.49
3347,-26.88
3360,41.87
3374,-16.34
3387,-25.94
3400,41.54
3413,-13.71
3427,-25.34
3440,37.43
3454,-14.49
3467,-23.25
3480,37.61
3493,-13.02
3507,-22.85
3520,35.47
3534,-13.71
3547,-22.14
3560,35.42
3573,-12.89
3587,-21.51
3600,33.55
3613,-12.15
3627,-20.67
3640,32.79
3654,-12.39
3667,-20.87
3680,32.03
3693,-10.01
3707,-19.77
3720,29.09
3733,-10.12
3747,-20.43
3760,29.56
3773,-7.67
3787,-20.17
3800,28.06
3814,-8.19
3827,-20.84
3840,26.91
3853,-3.86
3867,-22.31
3880,23.76
3893,0.90
3907,-24.19
3920,20.39
3933,5.03
3947,-23.74
3960,17.60
3973,8.28
3987,-28.96
4000,16.34
4013,18.22
4027,-36.35
4040,27.34
4053,6.40
4067,-66.43
4080,115.38
4093,-54.58
4107,-146.55
4120,274.94
4133,-93.71
4147,-272.77
4160,430.09
4174,-125.49
4187,-348.24
4200,326.63
4213,186.37
4227,-314.49
4240,-120.16
4254,168.84
4267,161.61
4280,-12.73
4294,-132.65
4307,-103.63
4320,25.31
4333,90.97
4347,49.94
4360,-2.16
4374,-29.85
4387,-36.39
4400,-9.17
4413,9.62
4427,4.41
4440,9.92
4453,10.44
4467,-5.86
4480,-1.43
4493,2.50
4507,-10.34
4520,0.66
4533,8.07
4547,-11.95
4560,5.40
4574,26.67
4587,-76.16
4600,65.49
4613,88.14
4627,-228.02
4640,114.89
4653,192.72
4667,-379.57
4680,202.26
4693,185.54
4707,-397.82
4720,284.06
4733,91.18
4747,-435.35
4760,326.13
4773,92.54
4787,-336.08
4800,270.25
4813,39.23
4827,-275.84
4840,130.70
4853,114.89
4867,-199.85
4880,244.14
4893,-40.08
4907,-425.25
4920,277.38
4934,262.45
4947,-68.68
4960,-147.44
4973,-30.75
4987,-107.39
5000,-11.22
5013,196.91
5027,85.49
5040,-41.83
5053,-26.19
5067,-110.58
5080,-62.88
5093,89.96
5107,27.77
5120,-7.64
5133,56.50
5147,-32.83
5160,-47.15
5173,43.62
5187,-20.76
5200,-32.49
5213,52.36
5227,-14.15
5240,-27.96
5253,48.20
5267,-15.07
5280,-28.78
5293,41.93
5307,-17.69
5320,-28.50
5333,41.51
5347,-14.39
5360,-25.36
5373,42.27
5387,-14.02
5400,-25.50
5413,39.20
5427,-15.26
5440,-25.36
5453,38.40
5467,-13.39
5480,-24.02
5493,39.08
5507,-14.58
5520,-24.65
5533,37.58
5547,-13.28
5560,-22.88
5573,37.57
5587,-15.39
5600,-23.58
5613,37.77
5627,-13.08
5640,-23.29
5653,35.93
5667,-13.35
5680,-22.92
5693,36.00
5707,-11.27
5720,-24.13
5734,34.21
5747,-11.62
5760,-21.70
5773,33.44
5787,-12.06
5800,-21.21
5813,33.91
5827,-12.46
5840,-21.04
5853,32.41
5867,-12.48
5880,-19.53
5893,33.25
5907,-13.38
5920,-20.03
5933,32.06
5947,-11.89
5960,-19.63
5973,31.72
5987,-12.01
6000,-19.38
6013,30.78
6027,-11.21
6040,-19.02
6053,28.96
6067,-11.00
6080,-17.10
6093,30.34
6107,-12.55
6120,-19.31
6134,29.41
6147,-10.29
6160,-16.69
6173,27.99
6187,-11.78
6200,-17.58
6213,28.94
6227,-10.99
6240,-17.18
6253,28.53
6267,-11.25
6280,-17.73
6293,27.51
6307,-10.07
6320,-15.63
6333,26.63
6347,-11.70
6360,-15.69
6373,26.83
6387,-10.37
6400,-16.23
6413,26.38
6427,-9.92
6440,-16.64
6453,25.13
6466,-8.27
6480,-14.50
6493,23.77
6507,-10.25
6520,-16.40
6533,25.43
6547,-7.42
6560,-14.32
6573,21.86
6587,-9.96
6600,-13.51
6613,23.25
6627,-8.26
6640,-13.43
6653,20.83
6667,-7.33
6680,-13.78
6693,19.31
6707,-5.60
6720,-11.08
6733,17.56
6747,-7.19
6760,-12.24
6773,17.39
6787,-3.17
6800,-11.36
6813,11.87
6827,-0.06
6840,-9.76
6853,8.02
6867,0.46
6880,-7.45
6893,4.78
6906,4.43
6920,-6.88
6933,1.84
6946,5.28
6960,-8.46
6973,0.04
6986,10.48
7000,-7.91
7013,-4.36
7026,13.10
7040,-9.13
7053,-5.56
7067,17.29
7080,-11.73
7093,-9.00
7107,21.21
7120,-9.59
7133,-11.55
7146,21.62
7160,-10.79
7173,-14.03
7187,25.83
7200,-9.86
7213,-15.73
7227,26.45
7240,-12.45
7253,-15.27
7266,29.35
7280,-13.10
7293,-18.03
7307,30.23
7320,-11.37
7333,-17.53
7346,30.00
7360,-13.20
7373,-19.37
7387,33.07
7400,-13.00
7413,-19.08
7427,31.48
7440,-13.03
7453,-18.60
7467,33.54
7480,-14.73
7493,-20.66
7507,34.36
7520,-12.56
7533,-21.32
7547,33.95
7560,-13.01
7573,-21.08
7586,35.14
7600,-13.90
7613,-22.21
7627,35.15
7640,-12.29
7653,-22.67
7667,36.10
7680,-14.87
7693,-21.68
7707,37.79
7720,-14.78
7733,-23.52
7747,36.01
7760,-13.42
7773,-21.81
7787,38.03
7800,-15.26
7813,-24.67
7827,38.37
7840,-14.14
7853,-23.55
7867,38.68
7880,-13.79
7893,-25.92
7907,39.21
7920,-14.03
7933,-25.03
7947,39.84
7960,-14.57
7973,-25.25
7987,39.49
8000,-14.58
8013,-25.37
8027,40.39
8040,-14.54
8053,-25.26
8067,40.48
8080,-16.94
8093,-25.20
8106,42.99
8120,-15.73
8133,-27.47
8147,41.92
8160,-14.02
8173,-26.67
8186,39.91
8200,-14.48
8213,-26.75
8226,45.48
8240,-19.95
8253,-28.40
8267,48.05
8280,-16.23
8293,-29.08
8307,43.30
8320,-17.78
8333,-26.92
8347,46.02
8360,-16.92
8373,-27.72
8387,43.85
8400,-16.36
8413,-27.99
8427,43.35
8440,-15.76
8453,-27.58
8467,44.54
8480,-15.82
8493,-28.91
8506,43.75
8520,-16.09
8533,-27.24
8546,44.47
8560,-16.32
8573,-29.08
8587,44.17
8600,-15.76
8613,-26.40
8626,42.95
8640,-17.15
8653,-26.69
8667,43.31
8680,-15.95
8693,-26.99
8707,42.20
8720,-14.93
8733,-25.92
8747,40.24
8760,-15.25
8773,-24.68
8787,39.25
8800,-13.93
8813,-24.11
8826,38.37
8840,-16.33
8853,-26.32
8867,51.75
8880,-25.11
8893,-36.58
8907,67.27
8921,-28.19
8933,-39.56
8946,54.55
8960,-5.76
8973,-30.58
8986,30.08
9000,-18.01
9013,-19.44
9026,44.76
9040,-11.17
9053,-26.10
9067,32.24
9080,-15.20
9093,-22.64
9107,37.37
9120,-10.04
9133,-22.84
9147,33.76
9160,-11.25
9173,-24.21
9187,32.22
9200,-6.84
9213,-23.44
9227,29.57
9240,-6.11
9253,-24.29
9267,28.73
9280,-1.71
9293,-24.95
9307,24.62
9320,0.09
9333,-25.00
9346,23.05
9360,3.60
9373,-25.45
9387,20.47
9400,6.72
9413,-27.60
9427,17.64
9440,12.00
9453,-27.67
9467,14.12
9480,14.45
9493,-29.66
9507,12.81
9520,18.77
9533,-29.59
9546,10.35
9560,19.26
9573,-30.84
9587,10.11
9600,21.89
9613,-30.08
9626,7.38
9640,21.99
9653,-29.44
9667,5.63
9680,25.63
9693,-38.30
9707,43.81
9720,-18.25
9733,-55.95
9746,38.61
9760,69.24
9773,-38.16
9787,-38.27
9800,0.76
9813,-23.83
9827,53.90
9840,32.92
9853,-59.90
9866,21.12
9880,11.15
9893,-60.91
9907,41.85
9920,31.97
9933,-58.16
9947,31.31
9960,28.10
9973,-59.49
9987,22.60
10000,34.98
10013,-53.25
10027,11.78
10040,41.37
10053,-45.83
10067,1.77
10080,43.65
10093,-44.54
10106,4.23
10120,41.57
10133,-54.13
10146,9.62
10160,48.96
10173,-54.34
10187,8.69
10200,46.84
10213,-63.64
10226,2.05
10240,69.01
10253,-48.30
10267,-23.70
10280,62.10
10293,-42.51
10307,-24.74
10320,67.71
10333,-34.95
10347,-29.58
10360,67.54
10373,-38.92
10387,-36.82
10400,72.62
10413,-32.07
10427,-40.55
10440,75.67
10453,-33.13
10467,-45.58
10480,78.76
10493,-32.55
10507,-48.44
10520,80.93
10533,-30.82
10547,-50.08
10560,83.24
10573,-35.12
10587,-52.53
10600,89.31
10613,-32.42
10627,-56.95
10640,90.26
10653,-36.59
10667,-58.35
10680,97.51
10693,-35.32
10706,-61.80
10720,97.97
10733,-37.95
10747,-64.17
10760,104.36
10773,-38.37
10787,-67.62
10800,107.68
10813,-40.00
10827,-68.52
10840,105.69
10853,-34.71
10867,-68.08
10880,103.76
10893,-40.11
10907,-64.44
10920,94.72
10933,-21.28
10947,-58.41
10960,84.00
10973,-44.62
10986,-67.57
11000,148.92
11013,-73.06
11027,-99.59
11040,165.55
11053,-41.87
11067,-105.17
11080,134.18
11093,-57.22
11107,-89.78
11120,160.67
11133,-49.55
11147,-102.34
11160,150.63
11173,-60.89
11187,-101.91
11200,163.42
11213,-55.11
11230,-106.22
11240,166.61
11253,-62.22
11267,-110.36
11280,174.86
11293,-61.46
11307,-113.97
11320,175.21
11333,-63.28
11346,-115.66
11360,181.36
11373,-63.06
11387,-119.07
11400,184.89
11413,-65.92
11427,-123.06
11440,191.00
11453,-69.24
11467,-124.56
11480,194.27
11493,-63.79
11507,-125.19
11520,177.04
11533,-53.67
11546,-117.16
11560,180.32
11573,-70.13
11587,-131.69
11600,217.08
11613,-70.36
11627,-159.79
11640,235.78
11653,-77.56
11667,-163.68
11680,230.28
11693,-53.69
11707,-160.72
11720,208.65
11733,-64.89
11747,-151.60
11760,221.52
11773,-52.46
11787,-160.12
11800,204.42
11813,-54.28
11827,-156.49
11840,210.78
11853,-48.64
11867,-157.98
11880,211.02
11893,-53.32
11906,-164.18
11920,215.22
11933,-48.90
11947,-165.04
11960,213.33
11973,-47.48
11987,-166.23
12000,213.97
12013,-47.70
12027,-166.79
12040,211.70
12053,-41.71
12067,-161.00
12080,186.33
12093,-24.72
12107,-149.82
12120,184.19
12133,-47.12
12147,-170.76
12160,255.18
12173,-75.05
12187,-194.67
12200,242.74
12213,-18.56
12227,-182.22
12240,175.54
12253,-41.36
12267,-147.29
12280,208.65
12293,-24.67
12307,-162.59
12320,170.52
12333,-31.28
12347,-149.62
12360,180.12
12373,-23.64
12387,-146.52
12400,170.98
12413,-22.09
12427,-145.95
12440,132.40
12453,55.28
12467,-155.34
12480,177.29
12493,-279.75
12507,-52.34
12520,487.12
12533,71.73
12547,-412.95
12560,-135.63
12573,6.11
12587,108.11
12600,340.04
12613,-8.04
12627,-278.14
12640,4.55
12653,-24.30
12666,-76.94
12680,188.63
12693,39.33
12707,-129.49
12720,96.42
12733,-4.87
12747,-132.60
12760,102.01
12773,20.26
12787,-115.01
12800,106.01
12813,20.77
12827,-120.35
12840,96.04
12853,32.52
12867,-120.97
12880,77.17
12893,32.82
12906,-115.24
12920,80.20
12933,43.83
12946,-114.46
12960,66.31
12973,49.77
12987,-113.57
13000,55.65
13013,57.51
13027,-108.64
13040,44.40
13053,66.01
13066,-98.30
13079,16.10
13093,80.95
13106,-77.05
13120,-4.10
13133,78.21
13146,-115.40
13160,78.65
13173,47.84
13186,-164.01
13200,80.64
13213,142.32
13226,-142.55
13240,-28.19
13253,80.91
13267,-103.47
13280,40.32
13293,139.61
13307,-123.06
13320,-34.54
13333,115.28
13347,-109.41
13360,-18.37
13373,142.20
13387,-103.90
13400,-35.41
13413,146.63
13427,-107.83
13440,-54.02
13453,158.72
13467,-99.97
13480,-65.93
13493,167.93
13506,-95.23
13522,-79.36
13533,179.18
13546,-93.71
13560,-92.61
13573,187.25
13586,-94.24
13600,-98.19
13613,195.96
13626,-94.42
13640,-106.84
13653,203.76
13666,-90.84
13680,-116.49
13693,190.76
13706,-61.48
13720,-123.03
13733,205.95
13747,-107.08
13760,-136.70
13773,268.17
13787,-125.78
13800,-93.89
13813,207.76
13826,-162.72
13840,-107.13
13853,330.18
13867,-114.17
13880,-225.30
13893,235.41
13906,-80.03
13920,-130.76
13933,295.79
13947,-106.89
13960,-204.30
13973,260.08
13987,-96.03
14000,-173.85
14013,292.95
14027,-92.25
14040,-193.18
14053,284.90
14067,-96.94
14080,-198.07
14093,294.90
14106,-97.82
14120,-203.43
14133,301.70
14146,-87.86
14160,-208.24
14173,293.62
14186,-89.33
14200,-210.36
14213,300.62
14226,-84.90
14240,-216.84
14253,304.66
14267,-89.39
14280,-221.36
14293,309.81
14306,-81.28
14320,-224.74
14333,303.57
14346,-83.27
14360,-224.38
14373,310.08
14387,-80.80
14400,-229.88
14413,312.76
14427,-85.32
14440,-232.66
14453,319.04
14467,-81.11
14480,-237.52
14493,317.40
14506,-81.99
14520,-237.23
14533,321.07
14546,-81.80
14560,-240.91
14573,322.76
14587,-79.65
14600,-244.52
14613,324.88
14626,-81.90
14640,-246.54
14653,329.58
14667,-78.06
14680,-250.44
14693,329.32
14706,-82.91
14720,-253.42
14733,339.78
14746,-79.63
14760,-259.35
14773,335.22
14786,-77.03
14800,-258.09
14813,335.12
14826,-75.87
14840,-259.73
14853,333.76
14867,-71.48
14880,-261.30
14893,333.28
14906,-73.05
14920,-264.51
14933,336.85
14947,-110.43
14960,-115.05
14973,236.66
14986,-199.95
15000,-277.72
15013,549.83
15026,64.30
15040,-402.05
15053,122.02
15067,-125.07
15080,-153.79
15093,489.84
15106,6.06
15120,-341.24
15133,213.96
15146,-92.46
15160,-252.44
15173,354.51
15186,-2.88
15200,-263.19
15213,298.33
15226,-49.20
15240,-286.03
15253,304.04
15267,-22.44
15280,-281.49
15293,311.70
15307,-21.31
15320,-294.56
15333,316.59
15346,-10.25
15360,-301.11
15373,303.62
15386,-6.54
15400,-301.97
15413,303.76
15426,3.71
15440,-305.50
15453,295.17
15466,19.43
15480,-302.68
15493,273.77
15506,21.82
15520,-281.08
15533,213.05
15546,84.27
15560,-252.39
15573,205.54
15586,-8.42
15600,-288.59
15613,309.65
15626,81.03
15640,-356.68
15653,278.87
15667,18.53
15680,-379.97
15693,333.41
15706,130.75
15720,-349.60
15733,200.40
15746,67.52
15760,-320.91
15773,248.45
15786,118.64
15800,-322.62
15813,203.46
15827,108.22
15840,-325.31
15853,196.58
15866,126.99
15880,-316.12
15893,189.01
15906,141.82
15920,-319.52
15933,169.01
15946,145.21
15960,-320.58
15973,164.17
15986,167.90
16000,-319.88
16013,145.33
16026,172.78
16040,-317.28
16053,135.64
16066,190.03
16080,-316.69
16093,111.61
16107,203.91
16120,-303.57
16133,96.29
16147,207.79
16160,-305.21
16173,82.67
16186,229.47
16200,-291.83
16213,57.73
16226,212.11
16240,-255.41
16253,33.74
16267,246.16
16280,-285.14
16293,12.27
16307,267.81
16320,-277.79
16333,46.12
16346,256.79
16360,-339.18
16373,30.02
16387,326.51
16400,-294.47
16413,-29.74
16426,285.89
16440,-284.23
16453,-9.08
16467,326.86
16480,-279.19
16493,-56.49
16507,315.69
16520,-270.83
16533,-60.75
16546,338.99
16560,-260.24
16573,-81.42
16587,346.22
16600,-258.92
16613,-100.10
16626,357.00
16640,-250.69
16653,-118.33
16666,374.90
16680,-245.29
16693,-139.36
16706,383.69
16720,-237.63
16733,-154.20
16746,395.63
16760,-232.75
16773,-176.90
16787,411.10
16800,-224.40
16813,-194.59
16826,419.42
16840,-218.58
16853,-210.85
16866,433.11
16880,-212.10
16893,-231.20
16907,442.63
16920,-204.90
16933,-246.58
16946,454.15
16960,-199.24
16973,-265.15
16987,464.20
17000,-186.50
17013,-283.04
17026,463.95
17040,-178.12
17053,-293.59
17067,474.82
17080,-166.93
17093,-312.38
17107,471.13
17120,-156.19
17133,-318.71
17146,475.41
17160,-147.64
17173,-330.80
17187,473.53
17200,-139.50
17213,-335.55
17227,473.81
17240,-132.98
17253,-343.07
17266,471.71
17280,-123.54
17293,-350.62
17307,473.44
17320,-120.02
17333,-354.07
17346,472.60
17360,-111.89
17373,-365.19
17386,466.41
17400,-98.90
17413,-359.48
17426,464.32
17440,-102.02
17453,-365.00
17466,449.74
17480,-82.25
17493,-368.42
17506,454.88
17520,-72.16
17533,-376.91
17546,439.23
17560,-72.04
17573,-375.68
17586,447.13
17600,-57.47
17613,-380.66
17627,433.70
17640,-54.76
17653,-382.87
17666,430.89
17680,-43.60
17693,-384.33
17706,425.08
17720,-35.55
17733,-389.10
17746,418.23
17760,-25.34
17773,-391.02
17786,410.33
17800,-15.79
17813,-393.22
17827,403.77
17840,-4.16
17853,-398.25
17867,394.79
17880,5.26
17893,-396.85
17906,388.51
17920,13.84
17933,-403.08
17947,380.38
17960,28.00
17973,-404.75
17986,370.63
18000,38.68
18013,-407.64
18026,362.03
18039,49.83
18053,-409.47
18066,352.78
18079,61.68
18093,-412.06
18106,342.61
18120,74.58
18133,-414.32
18146,331.58
18160,88.07
18173,-416.36
18186,320.64
18199,99.53
18213,-417.68
18226,310.91
18240,112.20
18253,-419.55
18267,298.53
18280,125.86
18293,-420.38
18306,288.10
18320,127.96
18333,-409.67
18346,277.79
18360,158.16
18373,-447.66
18386,251.95
18400,195.91
18413,-415.88
18426,237.19
18440,179.61
18453,-434.74
18467,227.84
18480,208.55
18493,-419.75
18507,216.40
18520,213.32
18533,-427.04
18547,197.18
18560,226.89
18573,-419.51
18586,185.50
18600,240.97
18613,-421.12
18626,170.35
18640,257.71
18653,-421.83
18666,152.86
18680,270.67
18693,-418.09
18706,137.65
18720,285.72
18733,-417.95
18746,122.14
18760,299.72
18773,-414.48
18786,105.35
18800,313.09
18813,-413.96
18826,89.96
18840,329.80
18853,-415.64
18866,74.77
18880,346.64
18893,-413.13
18906,57.50
18920,357.74
18933,-410.88
18946,43.82
18960,367.68
18973,-404.46
18986,33.13
19000,372.17
19013,-400.81
19026,23.29
19040,375.03
19053,-394.50
19066,17.62
19080,377.52
19093,-390.31
19106,7.79
19120,379.52
19133,-381.44
19146,-0.50
19160,381.91
19173,-377.18
19186,-10.53
19200,385.35
19213,-368.86
19226,-16.09
19240,382.18
19253,-363.92
19266,-23.40
19280,389.33
19293,-357.69
19306,-36.87
19320,388.90
19333,-348.48
19346,-41.81
19360,391.32
19373,-343.25
19386,-52.03
19400,391.94
19413,-336.06
19426,-59.31
19440,393.98
19453,-328.35
19466,-69.09
19480,395.41
19493,-320.63
19506,-78.68
19520,397.39
19533,-312.35
19546,-90.21
19560,399.66
19573,-301.77
19587,-101.19
19600,399.60
19613,-292.59
19626,-108.04
19640,396.24
19653,-284.01
19666,-116.76
19680,400.50
19693,-272.45
19706,-133.26
19720,397.88
19733,-260.54
19746,-138.66
19760,399.35
19773,-252.34
19786,-151.26
19800,397.44
19813,-239.52
19826,-162.24
19840,399.06
19853,-226.10
19866,-177.88
19880,397.34
19893,-211.48
19906,-187.71
19920,394.36
19933,-199.34
19946,-196.67
19960,391.21
19973,-188.25
19986,-207.24
20000,391.68
20013,-173.77
20026,-221.76
20040,388.30
20053,-158.75
20066,-231.86
20080,386.75
20093,-146.23
20106,-244.22
20120,384.07
20133,-131.46
20146,-255.60
20160,381.34
20173,-115.57
20186,-266.93
20200,374.24
20213,-101.35
20227,-275.21
20240,373.59
20253,-87.77
20266,-289.29
20279,368.17
20293,-71.61
20306,-297.67
20320,363.61
20333,-56.33
20346,-307.75
20360,356.31
20373,-42.15
20386,-317.89
20400,355.80
20413,-26.01
20426,-332.24
20440,348.31
20453,-9.22
20466,-340.75
20480,346.66
20493,4.87
20506,-353.92
20520,341.72
20533,-1.88
20546,-296.69
20560,283.29
20573,-3.87
20586,-334.63
20600,382.11
20613,49.02
20626,-438.29
20640,295.24
20653,89.10
20666,-362.39
20680,335.60
20693,77.81
20706,-426.23
20720,302.32
20733,103.86
20746,-410.13
20760,311.96
20773,119.53
20786,-420.95
20800,296.66
20813,122.89
20826,-425.49
20840,293.96
20853,137.13
20866,-427.77
20880,284.76
20893,148.51
20906,-431.90
20920,277.01
20933,163.02
20946,-438.23
20960,264.45
20973,177.60
20986,-439.51
21000,255.12
21013,194.20
21026,-448.48
21040,240.49
21053,215.56
21066,-449.85
21080,225.91
21093,229.94
21106,-454.76
21119,213.73
21133,247.74
21146,-457.19
21160,201.37
21173,261.24
21186,-459.85
21200,189.41
21213,279.21
21226,-467.57
21240,175.25
21253,299.03
21266,-467.66
21280,162.30
21293,308.92
21306,-469.69
21319,151.11
21333,324.68
21346,-471.98
21360,139.28
21373,334.56
21386,-467.08
21400,128.89
21413,337.54
21426,-465.01
21439,123.36
21453,341.30
21466,-460.43
21480,116.90
21493,344.02
21506,-456.83
21520,110.06
21533,344.20
21546,-452.95
21560,106.97
21573,346.63
21586,-449.47
21600,99.99
21613,348.83
21626,-445.05
21640,92.56
21653,350.14
21667,-439.33
21680,88.84
21693,350.22
21706,-436.21
21719,82.14
21733,353.46
21746,-430.85
21760,74.65
21773,353.89
21786,-425.09
21800,67.75
21813,357.78
21826,-419.56
21839,60.19
21853,354.69
21866,-414.29
21880,57.28
21893,360.17
21906,-410.19
21919,46.19
21933,358.01
21946,-402.83
21960,42.88
21973,362.44
21986,-396.73
22000,29.67
22013,360.69
22026,-386.91
22039,24.49
22053,362.08
22066,-380.23
22079,15.15
22093,362.62
22106,-373.69
22119,7.28
22133,364.30
22146,-364.99
22159,-3.46
22173,365.97
22186,-355.32
22200,-13.23
22213,364.60
22226,-345.93
22239,-23.48
22253,367.44
22266,-335.10
22279,-35.45
22293,365.35
22306,-324.15
22320,-44.77
22333,365.88
22346,-311.86
22360,-56.81
22373,363.29
22386,-301.23
22400,-66.45
22413,366.47
22426,-289.89
22439,-82.04
22453,365.68
22466,-276.15
22480,-91.22
22493,362.77
22506,-263.79
22520,-101.61
22533,359.76
22546,-250.70
22559,-111.09
22573,357.15
22586,-238.02
22600,-123.22
22613,355.18
22626,-222.66
22639,-134.84
22653,352.09
22666,-208.96
22680,-145.30
22693,348.18
22706,-196.05
22720,-155.14
22733,346.17
22746,-180.29
22760,-169.70
22773,343.09
22786,-163.75
22800,-181.07
22813,337.03
22827,-148.92
22840,-190.68
22853,336.12
22866,-134.58
22880,-203.94
22893,328.11
22906,-117.53
22920,-212.14
22933,327.08
22946,-104.11
22960,-227.07
22973,322.41
22986,-88.45
23000,-234.04
23013,316.72
23027,-73.12
23040,-247.22
23053,312.73
23066,-54.96
23079,-257.61
23093,304.07
23106,-39.94
23119,-268.54
23133,303.25
23146,-20.36
23160,-284.16
23173,293.19
23186,-2.69
23199,-291.55
23213,289.55
23226,12.04
23240,-302.21
23253,280.58
23266,28.66
23280,-313.31
23293,280.13
23306,47.75
23320,-328.53
23333,267.34
23346,66.28
23360,-335.34
23373,267.52
23386,80.89
23400,-350.47
23413,254.98
23426,102.97
23440,-357.39
23453,248.77
23466,118.93
23480,-367.94
23493,241.05
23506,136.34
23519,-385.59
23533,241.35
23546,157.80
23560,-394.64
23573,224.74
23586,174.09
23600,-397.97
23613,216.23
23626,193.55
23640,-409.02
23653,203.98
23666,212.21
23680,-416.58
23693,197.04
23706,227.97
23720,-423.48
23733,187.39
23746,244.45
23760,-432.86
23773,177.56
23786,264.49
23800,-439.87
23813,167.80
23826,280.94
23839,-450.81
23853,179.20
23866,214.85
23880,-360.72
23893,189.62
23906,235.45
23920,-529.25
23933,171.71
23946,396.38
23960,-421.61
23973,102.61
23986,260.17
24000,-479.91
24013,163.45
24027,354.05
24039,-446.32
24053,131.04
24066,310.54
24080,-470.70
24093,133.14
24106,329.08
24120,-455.14
24133,135.27
24146,328.29
24160,-461.78
24173,130.38
24186,331.23
24200,-459.61
24213,125.14
24227,330.47
24239,-455.84
24253,125.26
24266,333.40
24280,-454.52
24293,118.11
24306,335.14
24320,-450.40
24333,113.02
24346,334.40
24360,-444.22
24373,109.72
24386,334.64
24400,-441.58
24413,103.16
24426,334.84
24440,-432.10
24453,97.51
24466,332.00
24480,-427.36
24493,92.95
24506,333.93
24520,-423.50
24533,87.10
24546,335.40
24560,-416.27
24573,75.93
24586,335.05
24600,-406.61
24613,74.49
24626,333.28
24639,-403.93
24653,61.85
24667,335.20
24680,-390.41
24693,59.74
24706,331.54
24720,-387.62
24733,47.71
24746,334.28
24760,-374.17
24773,40.49
24786,332.17
24800,-369.82
24813,33.52
24826,335.18
24840,-359.87
24854,19.68
24866,332.45
24879,-346.05
24893,14.47
24906,331.55
24919,-340.46
24932,3.63
24946,330.75
24960,-327.18
24972,-6.52
24986,330.62
24999,-315.06
25013,-17.43
25026,326.73
25039,-302.18
25053,-29.30
25066,324.63
25080,-287.11
25093,-36.94
25106,322.69
25120,-277.97
25133,-51.47
25146,319.47
25160,-259.93
25173,-59.22
25186,318.07
25200,-249.50
25213,-73.20
25226,314.37
25240,-236.08
25253,-80.41
25266,314.59
25280,-223.05
25293,-95.50
25306,310.12
25320,-207.66
25333,-105.60
25346,310.42
25359,-192.79
25373,-122.14
25386,304.40
25400,-174.06
25413,-130.72
25426,299.82
25440,-158.23
25453,-145.07
25466,294.13
25480,-140.94
25493,-154.37
25506,289.47
25520,-123.83
25533,-168.80
25546,281.81
25559,-103.39
25573,-179.10
25586,277.19
25600,-88.11
25613,-191.98
25626,270.54
25639,-67.83
25653,-206.07
25666,264.94
25680,-49.08
25693,-213.48
25706,256.93
25719,-33.68
25733,-230.49
25746,251.05
25759,-9.76
25773,-236.62
25786,243.52
25799,2.60
25813,-253.97
25826,236.85
25839,28.59
25853,-262.03
25866,228.32
25879,44.52
25893,-276.65
25906,219.41
25919,68.21
25933,-289.23
25946,211.87
25959,88.63
25973,-298.12
25986,201.52
26000,104.85
26013,-311.74
26026,196.01
26040,130.04
26053,-324.83
26066,183.24
26080,151.32
26093,-333.53
26106,172.50
26119,170.52
26133,-344.84
26146,165.10
26160,190.57
26173,-354.54
26186,150.86
26200,214.47
26213,-364.89
26226,140.84
26240,236.03
26253,-376.13
26266,128.30
26279,251.67
26293,-377.48
26306,124.15
26319,256.06
26333,-381.41
26346,124.53
26360,259.09
26373,-385.19
26386,124.07
26400,262.68
26413,-389.36
26426,128.85
26440,266.64
26453,-396.93
26466,123.51
26479,271.50
26493,-392.98
26506,125.39
26519,270.10
26533,-396.48
26546,122.64
26560,272.94
26573,-396.94
26586,126.23
26600,275.22
26613,-400.62
26626,120.09
26639,277.81
26653,-398.00
26666,123.59
26679,279.75
26693,-403.63
26706,118.26
26719,281.85
26733,-397.23
26746,116.55
26760,282.38
26773,-399.41
26786,116.25
26800,285.15
26813,-400.61
26826,110.58
26840,287.63
26853,-395.81
26867,110.25
26880,292.23
26893,-409.91
26906,112.82
26920,304.39
26933,-406.40
26946,92.88
26959,279.45
26973,-330.72
26986,62.12
27000,220.77
27013,-264.44
27026,64.15
27039,208.62
27053,-299.62
27066,82.31
27080,251.11
27093,-361.43
27106,93.85
27120,293.18
27133,-369.49
27146,63.77
27159,292.45
27173,-350.89
27186,65.30
27200,287.18
27214,-353.22
27226,53.61
27239,293.70
27253,-337.27
27266,49.22
27279,290.33
27293,-335.61
27306,37.77
27319,290.82
27333,-323.13
27346,31.45
27359,287.44
27373,-310.92
27386,22.00
27400,284.78
27413,-297.66
27426,8.93
27439,280.92
27453,-285.15
27466,4.08
27480,280.61
27493,-275.22
27506,-11.20
27520,275.06
27533,-256.08
27546,-17.67
27559,272.45
27573,-242.68
27586,-36.00
27600,263.62
27613,-219.87
27626,-40.77
27639,258.24
27653,-208.69
27666,-53.36
27679,254.03
27693,-190.81
27706,-66.93
27720,248.81
27733,-173.52
27746,-73.60
27759,243.76
27773,-161.78
27786,-87.78
27800,240.17
27813,-142.02
27826,-99.12
27839,234.62
27853,-124.87
27866,-111.25
27879,226.26
27893,-107.90
27906,-119.82
27919,224.35
27933,-94.00
27946,-133.78
27959,217.90
27973,-75.92
27986,-144.23
27999,214.05
28013,-57.83
28026,-156.29
28039,204.28
28052,-39.17
28066,-169.25
28079,199.19
28093,-17.42
28106,-180.83
28119,190.23
28132,-2.27
28146,-190.41
28159,185.99
28172,13.75
28186,-200.51
28199,177.48
28213,33.61
28226,-212.94
28239,169.99
28253,54.29
28266,-225.47
28279,162.49
28293,72.43
28306,-236.70
28320,155.69
28333,90.93
28346,-247.06
28359,145.85
28373,113.28
28386,-258.96
28400,132.72
28413,136.85
28426,-268.70
28440,120.65
28453,161.39
28466,-280.02
28479,102.60
28493,182.17
28506,-281.89
28519,101.10
28533,188.13
28546,-291.55
28559,93.88
28573,194.98
28586,-289.30
28599,101.64
28613,198.13
28626,-307.45
28640,104.81
28653,201.58
28666,-309.00
28680,111.96
28693,205.14
28706,-315.71
28719,93.49
28733,212.89
28746,-293.15
28759,99.46
28773,198.47
28786,-314.95
28799,101.15
28813,212.46
28826,-302.69
28839,97.08
28853,206.48
28866,-304.72
28880,98.10
28893,206.16
28906,-309.38
28919,100.22
28933,212.15
28946,-311.36
28960,101.18
28973,212.68
28986,-315.51
28999,100.56
29013,215.26
29026,-315.25
29040,99.31
29053,215.56
29066,-314.53
29080,99.40
29093,215.29
29106,-314.48
29119,98.83
29133,216.06
29146,-314.84
29159,98.12
29173,216.30
29186,-313.12
29200,95.84
29213,215.53
29226,-308.64
29239,93.94
29253,199.28
29266,-249.62
29280,34.17
29293,167.90
29306,-212.87
29319,98.64
29333,181.24
29346,-349.76
29360,127.68
29373,242.82
29386,-339.26
29400,73.29
29413,234.23
29426,-283.82
29440,95.56
29453,202.83
29466,-323.36
29479,79.39
29493,223.41
29506,-288.02
29519,91.46
29533,213.03
29546,-302.06
29559,76.91
29573,212.77
29586,-292.01
29599,79.94
29613,213.79
29626,-288.69
29639,74.73
29653,212.73
29666,-285.10
29679,72.82
29693,210.05
29706,-281.04
29719,67.59
29732,210.35
29746,-274.15
29759,65.59
29773,209.29
29786,-274.45
29800,61.72
29813,211.07
29826,-268.48
29839,56.63
29853,208.66
29866,-261.29
29880,52.40
29893,206.01
29906,-255.18
29919,47.40
29933,205.56
29946,-248.44
29959,41.62
29973,203.62
29986,-242.11
30000,36.41
30013,217.69
30026,-284.02
30039,71.73
30053,248.42
30066,-300.12
30079,10.71
30093,206.28
30106,-124.95
30119,-49.04
30133,126.64
30146,-136.92
30159,73.26
30173,167.28
30186,-262.33
30200,-31.39
30213,212.98
30226,-132.07
30239,23.70
30253,168.77
30266,-203.77
30279,-31.29
30293,181.04
30306,-153.06
30319,-5.16
30333,180.52
30346,-153.43
30359,-29.59
30373,170.43
30386,-142.93
30400,-30.12
30413,166.53
30426,-131.21
30439,-37.28
30453,162.01
30466,-114.13
30479,-45.11
30493,155.50
30506,-103.63
30519,-55.71
30533,175.55
30546,-182.53
30559,6.10
30573,259.23
30586,-197.22
30600,-133.64
30613,164.19
30626,-7.62
30639,-41.26
30653,133.66
30666,-84.61
30679,-115.82
30693,124.70
30706,-35.99
30719,-71.20
30733,145.13
30746,-25.41
30760,-107.32
30773,110.00
30786,-17.71
30800,-110.35
30813,113.70
30826,5.21
30839,-109.51
30853,109.32
30866,16.79
30880,-128.76
30893,96.14
30906,34.22
30919,-129.49
30933,91.75
30946,47.08
30959,-142.69
30973,84.87
30986,64.69
31000,-144.48
31013,78.14
31026,75.55
31040,-160.03
31053,70.37
31066,96.14
31079,-160.40
31093,62.09
31106,102.26
31119,-167.73
31133,61.26
31146,110.95
31160,-172.87
31173,60.60
31186,115.47
31200,-177.44
31213,59.78
31226,117.99
31239,-177.30
31253,60.43
31266,118.92
31280,-182.01
31292,61.85
31306,121.88
31319,-183.72
31333,61.27
31346,123.25
31360,-187.22
31373,65.30
31386,125.91
31400,-192.52
31412,63.70
31426,128.35
31439,-192.49
31453,65.95
31466,129.19
31479,-196.55
31493,65.21
31506,133.06
31519,-200.47
31533,67.66
31546,136.10
31560,-205.54
31573,68.32
31586,138.22
31600,-205.91
31613,66.83
31626,138.34
31639,-205.24
31653,68.27
31666,138.23
31680,-207.42
31693,67.32
31706,140.78
31719,-209.42
31733,70.16
31746,141.93
31759,-212.91
31773,68.41
31786,144.00
31799,-213.07
31812,71.07
31826,145.38
31840,-217.52
31853,69.16
31866,147.24
31880,-217.20
31893,72.20
31906,148.07
31919,-220.58
31933,70.16
31946,149.58
31960,-220.11
31974,70.66
31986,150.65
31999,-219.05
32012,67.58
32026,148.95
32039,-217.94
32052,70.80
32066,149.60
32079,-220.09
32092,68.11
32106,151.06
32120,-219.89
32133,70.68
32146,151.44
32159,-223.03
32173,69.61
32186,152.59
32200,-220.73
32213,68.52
32226,152.00
32239,-219.84
32253,67.74
32266,151.27
32280,-219.94
32293,68.80
32306,153.02
32320,-221.91
32333,68.36
32346,152.76
32359,-219.82
32373,65.78
32386,152.91
32400,-218.01
32413,67.50
32426,151.29
32440,-219.27
32453,64.68
32466,153.03
32480,-216.19
32493,65.82
32506,151.46
32520,-216.16
32533,61.54
32546,156.63
32559,-235.88
32573,88.79
32586,175.03
32600,-272.72
32612,76.88
32626,173.06
32639,-195.83
32653,16.63
32666,132.21
32680,-155.69
32693,75.93
32706,121.21
32719,-223.02
32733,45.08
32746,152.95
32759,-179.20
32773,65.81
32786,138.02
32800,-208.33
32813,47.17
32826,141.48
32840,-187.85
32853,52.73
32866,139.63
32879,-186.31
32893,48.70
32906,135.67
32920,-182.93
32933,43.02
32946,134.28
32959,-177.11
32973,47.34
32986,133.07
33000,-178.53
33012,40.36
33026,133.10
33039,-169.00
33052,38.67
33066,128.25
33079,-162.07
33092,30.64
33106,124.30
33119,-151.59
33132,30.96
33146,120.64
33159,-149.61
33172,25.53
33186,122.89
33199,-152.63
33212,33.54
33226,124.23
33239,-146.70
33252,8.49
33266,118.87
33279,-119.33
33293,18.61
33306,91.12
33319,-64.82
33333,-51.95
33346,51.68
33359,-17.50
33373,34.90
33386,61.58
33399,-122.99
33413,-16.11
33426,103.62
33439,-73.02
33452,10.21
33466,96.06
33479,-101.90
33493,-17.94
33506,96.95
33519,-81.28
33533,-12.00
33546,93.62
33559,-66.37
33573,-26.44
33586,83.18
33599,-50.28
33613,-31.04
33626,74.58
33639,-40.85
33653,-37.13
33666,71.99
33679,-25.73
33693,-44.12
33706,64.06
33719,-14.43
33733,-49.71
33746,61.74
33759,-17.23
33772,-43.79
33786,68.17
33799,-14.24
33813,-66.30
33826,61.33
33839,15.24
33852,-63.36
33866,51.38
33879,14.11
33893,-75.13
33906,46.75
33919,46.14
33933,-90.72
33946,26.17
33959,59.50
33972,-71.32
33986,38.19
33999,37.62
34013,-104.38
34026,39.94
34039,68.48
34053,-90.75
34066,40.63
34079,57.78
34093,-110.88
34106,39.25
34119,70.13
34133,-109.40
34146,42.07
34159,73.99
34173,-115.65
34186,41.61
34199,74.81
34212,-119.59
34226,41.93
34239,79.88
34253,-125.88
34266,48.58
34279,85.04
34293,-136.72
34306,46.70
34319,91.13
34333,-139.59
34346,50.53
34359,93.47
34373,-145.89
34386,49.39
34399,96.87
34413,-146.38
34426,49.95
34439,97.54
34457,-146.87
34466,48.83
34479,96.61
34492,-144.41
34506,47.57
34519,95.25
34532,-141.12
34546,46.91
34559,94.09
34573,-143.77
34586,50.44
34599,96.41
34613,-146.61
34626,46.61
34639,98.19
34653,-144.95
34666,51.17
34679,97.71
34693,-150.84
34706,47.86
34719,101.52
34733,-149.17
34746,51.40
34759,101.37
34773,-154.59
34786,50.07
34799,103.80
34813,-153.89
34826,51.64
34839,104.74
34852,-159.44
34866,54.40
34879,108.96
34893,-167.78
34906,57.68
34919,116.73
34933,-180.94
34946,64.06
34959,108.63
34973,-124.60
34986,-8.23
34999,89.14
35013,-129.27
35026,121.55
35039,108.47
35052,-251.63
35066,25.72
35079,152.29
35093,-135.48
35106,76.86
35119,108.68
35133,-208.19
35146,45.53
35159,126.96
35172,-171.14
35186,64.08
35199,125.68
35213,-181.87
35226,56.80
35239,121.22
35253,-185.28
35266,57.30
35279,126.48
35293,-181.51
35306,58.68
35319,129.34
35333,-200.99
35346,75.90
35359,134.88
35372,-194.82
35386,37.77
35399,126.32
35413,-154.02
35426,58.72
35439,100.79
35453,-140.88
35466,8.24
35479,92.03
35493,-111.50
35506,71.69
35519,93.23
35533,-184.53
35546,39.35
35559,120.11
35572,-147.74
35586,58.02
35599,110.99
35612,-172.43
35626,45.74
35639,114.38
35653,-163.59
35666,52.69
35679,117.27
35693,-164.66
35706,48.01
35719,113.55
35733,-162.32
35746,47.21
35759,113.93
35773,-159.96
35786,47.19
35799,112.23
35813,-159.08
35826,45.87
35839,112.32
35853,-155.00
35866,43.19
35879,108.73
35892,-151.34
35906,43.10
35919,106.39
35933,-145.54
35946,38.09
35959,103.51
35973,-140.56
35986,40.31
35999,101.21
36013,-142.56
36026,38.58
36039,102.60
36053,-138.07
36066,36.16
36079,100.56
36093,-136.50
36106,36.76
36119,98.50
36133,-131.96
36146,30.89
36159,96.02
36173,-123.52
36186,31.56
36199,91.26
36213,-122.84
36226,28.61
36239,91.85
36253,-116.43
36266,25.99
36279,88.02
36293,-115.11
36306,27.80
36319,90.12
36333,-117.51
36346,24.23
36359,93.81
36373,-121.57
36386,29.86
36399,93.43
36413,-111.25
36426,8.82
36439,81.46
36453,-78.60
36466,11.52
36479,55.17
36492,-35.83
36506,-33.64
36519,19.20
36533,23.96
36546,-6.59
36559,11.94
36573,-39.47
36586,10.51
36599,47.97
36612,-57.91
36626,-10.20
36639,57.74
36653,-28.86
36666,-7.44
36679,41.20
36693,-41.56
36706,-16.38
36719,46.37
36733,-24.65
36746,-15.71
36759,39.74
36773,-7.54
36786,-32.39
36799,21.33
36812,13.30
36826,-29.50
36839,18.19
36853,13.34
36866,-36.50
36879,17.67
36892,20.01
36906,-33.58
36923,16.29
36932,20.03
36945,-39.67
36959,17.84
36972,23.32
36986,-43.97
36999,19.20
37012,27.47
37026,-47.09
37039,20.04
37053,29.48
37066,-50.08
37079,19.75
37092,30.38
37106,-52.18
37119,20.78
37133,33.99
37146,-54.27
37159,19.69
37173,34.69
37186,-55.08
37199,20.89
37212,35.57
37226,-58.19
37239,21.92
37252,37.66
37266,-60.54
37279,22.63
37292,39.94
37306,-63.78
37319,23.06
37333,42.07
37346,-65.84
37359,23.76
37372,43.06
37386,-67.96
37399,24.26
37412,45.10
37426,-71.10
37439,26.87
37452,47.09
37466,-75.53
37479,26.30
37493,49.50
37506,-76.12
37519,27.37
37532,51.79
37546,-82.06
37559,29.84
37572,58.28
37586,-100.86
37599,44.86
37612,66.57
37626,-101.32
37639,19.21
37653,54.43
37666,-40.82
37679,-2.98
37693,26.78
37706,-42.40
37719,36.12
37732,44.74
37746,-124.28
37759,59.59
37773,82.76
37786,-117.70
37799,17.11
37812,73.89
37826,-77.92
37839,37.30
37852,53.03
37866,-109.15
37879,27.64
37893,69.12
37906,-85.70
37919,34.04
37932,63.49
37946,-99.26
37959,29.86
37973,63.44
37986,-93.76
37999,26.35
38012,63.80
38026,-87.40
38039,31.90
38052,61.42
38066,-97.04
38079,29.74
38092,62.60
38106,-84.13
38119,20.37
38132,58.21
38145,-83.99
38159,36.93
38172,60.95
38186,-105.48
38199,29.95
38212,71.78
38226,-98.08
38239,34.82
38252,69.16
38266,-105.79
38279,31.28
38293,70.67
38306,-101.00
38319,31.81
38332,69.68
38346,-100.93
38359,32.24
38373,69.61
38386,-104.03
38399,33.76
38412,71.03
38426,-103.32
38439,30.26
38452,71.99
38466,-101.75
38479,31.87
38493,71.29
38506,-103.96
38519,30.64
38532,70.87
38546,-97.14
38559,26.11
38572,67.74
38586,-94.75
38599,30.94
38612,67.68
38626,-99.49
38639,26.33
38652,68.11
38666,-89.48
38679,24.87
38693,63.52
38706,-88.14
38719,25.42
38732,62.66
38746,-91.36
38759,27.79
38772,65.17
38786,-91.02
38799,24.77
38812,64.29
38826,-85.17
38839,21.31
38852,60.08
38866,-81.24
38879,22.21
38892,59.01
38906,-78.72
38919,18.24
38932,57.14
38946,-76.13
38959,22.49
38972,57.57
38986,-82.53
38999,21.82
39012,61.76
39026,-85.33
39039,24.56
39052,62.71
39066,-84.37
39079,18.61
39093,60.67
39106,-76.49
39119,19.36
39132,57.28
39146,-76.12
39159,16.35
39172,56.72
39186,-73.56
39199,20.11
39212,58.84
39226,-85.79
39239,26.37
39252,66.34
39266,-94.66
39279,22.38
39292,73.53
39306,-101.13
39319,33.62
39332,80.38
39346,-120.20
39359,30.83
39372,83.67
39386,-100.32
39399,14.32
39412,67.28
39425,-58.10
39439,-2.99
39452,39.18
39465,-30.12
39479,-2.25
39492,29.03
39505,-33.75
39519,6.87
39532,37.28
39545,-50.96
39559,9.86
39572,43.75
39586,-44.89
39599,-4.52
39612,37.37
39626,-27.07
39639,-0.79
39652,28.32
39666,-27.67
39679,-7.26
39692,27.54
39706,-14.52
39719,-9.39
39732,22.15
39746,-7.53
39759,-14.46
39772,16.17
39786,-1.04
39799,-15.39
39812,13.95
39826,4.53
39839,-16.42
39852,11.11
39865,5.32
39879,-17.57
39892,11.23
39906,8.13
39919,-19.91
39932,11.08
39946,9.50
39959,-20.34
39972,10.69
39986,10.27
39999,-22.42
40012,11.81
40026,12.07
40039,-23.42
40052,10.81
40066,12.80
40079,-25.17
40092,12.18
40105,14.77
40119,-26.91
40132,11.96
40146,15.53
40159,-29.84
40172,14.43
40186,17.70
40199,-32.00
40212,12.89
40226,18.07
40239,-30.02
40252,12.60
40266,18.28
40279,-32.83
40292,14.53
40306,20.33
40319,-35.45
40332,13.86
40346,21.56
40359,-35.96
40372,15.29
40386,22.11
40399,-37.24
40412,13.92
40426,22.53
40439,-37.39
40452,15.90
40466,24.35
40479,-42.42
40492,16.66
40505,27.36
40519,-44.42
40532,16.97
40546,28.32
40559,-46.07
40572,16.95
40586,30.30
40599,-47.25
40612,16.91
40626,28.79
40639,-41.17
40659,9.92
40665,27.54
40679,-41.52
40692,21.43
40705,30.46
40719,-57.85
40732,18.24
40745,37.82
40759,-54.08
40772,20.63
40785,37.17
40799,-58.63
40812,19.43
40826,37.82
40839,-58.14
40852,19.77
40866,39.07
40879,-59.21
40892,21.90
40906,39.61
40919,-62.44
40932,20.46
40946,41.40
40959,-63.20
40972,23.81
40986,42.65
40999,-67.41
41012,21.80
41026,45.07
41039,-65.97
41052,22.05
41066,45.18
41079,-68.92
41092,22.83
41106,47.00
41119,-68.97
41132,21.52
41146,46.93
41159,-70.15
41172,24.45
41186,48.29
41199,-73.09
41212,22.81
41226,48.85
41239,-70.16
41252,22.12
41266,47.87
41279,-71.00
41292,23.62
41306,49.55
41319,-74.59
41332,23.52
41346,51.19
41359,-74.64
41372,23.96
41386,51.65
41399,-75.67
41412,23.90
41426,51.65
41439,-76.03
41452,23.76
41466,52.12
41479,-75.38
41492,23.95
41506,51.89
41519,-76.54
41532,24.25
41546,52.59
41559,-75.58
41572,21.43
41586,52.19
41599,-72.61
41612,22.61
41626,51.43
41639,-74.87
41652,21.19
41666,52.06
41679,-72.26
41692,21.70
41706,50.96
41719,-71.68
41732,20.05
41746,49.72
41759,-69.33
41772,20.10
41786,48.74
41799,-67.70
41812,18.63
41826,48.22
41839,-65.58
41852,17.54
41866,46.51
41879,-63.72
41892,17.58
41906,45.41
41919,-60.97
41932,15.22
41946,43.03
41959,-56.57
41972,14.06
41986,41.29
41999,-53.38
42012,11.86
42026,38.64
42039,-47.57
42052,8.59
42066,36.29
42079,-46.24
42092,14.83
42106,34.23
42119,-47.29
42132,5.08
42146,32.35
42159,-27.87
42172,2.89
42186,21.97
42199,-22.67
42212,-1.85
42226,18.57
42239,-16.55
42252,1.02
42266,15.50
42279,-10.32
42292,-7.22
42306,10.13
42319,-2.26
42332,-3.84
42345,8.24
42359,-5.06
42372,-4.96
42385,8.61
42399,-3.97
42412,-4.66
42426,9.89
42439,-3.62
42452,-5.87
42465,8.33
42479,-3.23
42492,-5.74
42506,8.79
42519,-2.32
42532,-6.11
42545,8.97
42559,-2.65
42572,-6.89
42585,8.55
42599,-1.39
42612,-6.80
42626,8.32
42639,-1.33
42652,-6.75
42665,8.02
42679,-1.54
42692,-7.39
42705,8.92
42719,-0.30
42732,-7.93
42745,6.73
42759,0.61
42772,-5.83
42785,5.24
42799,-0.37
42812,-5.34
42826,6.75
42839,-0.51
42852,-7.04
42865,6.76
42879,0.80
42892,-7.83
42905,6.68
42919,1.69
42932,-8.71
42945,7.99
42959,1.43
42972,-10.18
42985,7.87
42999,1.87
43012,-9.76
43025,8.25
43039,2.30
43052,-10.34
43065,7.65
43079,3.64
43092,-11.98
43106,67.20
43119,-236.11
43132,210.84
43146,195.54
43159,-185.53
43172,-274.52
43186,35.38
43199,257.24
43212,150.24
43226,-69.98
43239,-184.64
43252,-116.32
43266,51.79
43279,114.57
43292,53.64
43306,4.63
43319,-35.64
43332,-54.10
43346,-4.85
43359,14.21
43372,-3.47
43386,19.84
43399,12.80
43412,-18.86
43425,6.04
43439,6.97
43452,-18.04
43465,6.83
43479,7.43
43492,-17.42
43506,8.78
43519,12.02
43532,-20.16
43546,11.01
43559,12.47
43572,-21.73
43585,6.80
43599,11.46
43612,-20.35
43625,9.21
43639,12.77
43652,-20.82
43665,8.05
43679,12.56
43692,-21.74
43706,9.95
43719,13.69
43732,-24.58
43746,9.66
43759,14.84
43772,-24.82
43786,10.01
43799,16.10
43812,-26.33
43825,9.81
43839,16.79
43852,-26.19
43865,9.21
43879,16.67
43892,-27.23
43906,11.13
43919,17.86
43932,-29.16
43946,10.30
43959,18.41
43972,-28.43
43985,10.46
43999,18.46
44012,-29.97
44026,11.72
44039,19.55
44052,-32.32
44065,11.82
44079,21.38
44093,-32.82
44106,10.86
44119,21.85
44132,-32.58
44146,11.60
44159,21.41
44172,-33.64
44185,10.53
44199,22.94
44212,-32.15
44226,10.24
44239,21.88
44252,-33.38
44266,11.28
44279,22.68
44292,-33.16
44305,9.79
44319,22.26
44332,-31.96
44346,10.83
44359,22.08
44372,-33.70
44385,10.92
44399,22.80
44412,-33.56
44426,10.68
44439,23.14
44452,-34.56
44466,12.14
44479,23.34
44492,-34.72
44505,9.52
44519,22.95
44532,-31.47
44546,10.75
44559,21.81
44572,-33.67
44585,10.13
44599,24.13
44612,-33.71
44625,8.97
44639,23.88
44652,-31.31
44665,8.15
44679,22.12
44692,-29.93
44706,7.68
44719,24.62
44733,-42.28
44746,21.97
44759,33.12
44772,-57.96
44785,13.85
44799,34.44
44812,-28.97
44825,-3.45
44839,19.23
44852,-19.70
44866,14.14
44879,17.16
44892,-39.35
44906,5.99
44919,26.77
44932,-23.40
44945,6.76
44959,18.58
44972,-25.15
44985,2.85
44999,16.69
45012,-19.61
45026,3.63
45039,16.09
45052,-16.94
45065,1.51
45079,14.25
45092,-15.35
45105,1.94
45119,12.92
45132,-15.59
45145,0.90
45159,14.04
45172,-12.51
45185,-0.39
45199,11.84
45212,-11.74
45225,0.17
45239,11.40
45252,-10.80
45265,-1.31
45279,10.61
45292,-8.82
45306,-0.63
45319,9.81
45332,-8.93
45345,-1.50
45359,9.44
45372,-7.54
45385,-1.48
45399,8.81
45412,-6.77
45425,-2.56
45439,9.09
45452,-6.10
45465,-2.67
45479,8.33
45492,-5.66
45505,-2.94
45519,8.40
45532,-5.08
45545,-2.69
45559,7.94
45572,-5.73
45585,-2.83
45599,8.20
45612,-4.43
45626,-4.01
45639,8.28
45652,-3.79
45665,-4.11
45679,7.57
45692,-4.12
45705,-3.71
45719,8.01
45732,-3.31
45745,-4.67
45759,7.26
45772,-2.87
45785,-3.97
45799,7.26
45812,-3.42
45825,-4.46
45839,7.80
45852,-2.39
45865,-5.85
45879,6.97
45892,-0.91
45905,-3.92
45919,5.85
45932,-3.36
45945,-5.27
45959,8.31
45972,-0.97
45985,-5.57
45999,6.44
46012,-2.09
46025,-5.22
46039,7.18
46052,-1.01
46065,-6.05
46079,6.49
46092,-0.41
46105,-6.04
46119,7.08
46132,-0.66
46145,-6.96
46159,73.64
46172,-272.16
46185,258.35
46199,197.80
46212,-221.63
46226,-283.39
46239,53.02
46252,276.57
46266,156.46
46279,-87.15
46292,-202.59
46306,-111.27
46319,59.92
46332,117.04
46345,62.64
46359,0.29
46372,-46.65
46385,-48.10
46399,-6.56
46412,9.51
46425,6.83
46439,17.63
46452,6.46
46465,-10.10
46479,3.00
46492,-0.25
46506,-10.11
46519,5.83
46532,2.33
46545,-9.73
46559,6.95
46572,3.65
46585,-8.82
46599,7.41
46612,3.73
46625,-10.36
46639,6.50
46652,2.63
46665,-11.41
46679,6.64
46692,4.18
46705,-9.61
46719,7.22
46732,4.41
46745,-12.07
46759,6.68
46772,5.13
46785,-11.81
46799,6.26
46812,4.95
46826,-11.34
46839,6.90
46852,5.13
46865,-11.53
46879,5.79
46892,5.73
46905,-11.73
46919,6.08
46932,5.65
46945,-12.06
46959,6.13
46972,6.13
46985,-11.71
46999,5.81
47012,6.29
47025,-12.71
47039,5.49
47052,7.30
47065,-12.52
47079,6.04
47092,6.95
47105,-13.52
47119,5.64
47132,7.73
47145,-13.32
47159,6.51
47172,7.61
47185,-14.45
47199,5.77
47212,8.04
47226,-13.49
47239,6.23
47252,7.72
47265,-14.08
47279,5.78
47292,8.64
47306,-15.11
47319,6.25
47332,9.58
47345,-15.18
47359,5.41
47372,9.25
47385,-15.50
47399,6.68
47412,9.68
47426,-15.66
47439,5.08
47452,9.36
47465,-14.21
47479,5.50
47492,9.68
47505,-14.93
47519,4.38
47532,9.46
47545,-14.06
47559,5.34
47572,9.61
47585,-14.67
47599,4.68
47612,9.43
47625,-14.40
47638,5.04
47652,9.45
47665,-13.80
47679,4.23
47692,9.11
47705,-13.92
47719,5.51
47732,9.36
47745,-15.08
47759,4.62
47772,9.79
47785,-14.01
47798,4.97
47812,10.02
47825,-15.39
47839,4.26
47852,10.76
47865,-14.44
47879,4.30
47892,10.12
47905,-14.88
47919,4.45
47932,10.37
47945,-14.03
47959,3.66
47972,9.92
47985,-14.24
47999,4.96
48012,10.23
48025,-15.35
48039,4.07
48052,10.48
48065,-13.66
48078,3.88
48092,9.53
48105,-13.16
48118,3.47
48132,9.02
48145,-12.06
48159,2.64
48172,9.38
48185,-11.43
48198,2.44
48212,8.68
48225,-11.68
48239,2.68
48252,9.50
48266,-11.01
48279,0.65
48292,9.01
48305,-9.34
48318,1.82
48332,8.20
48345,-10.86
48359,1.39
48372,9.24
48385,-10.46
48399,2.30
48412,9.09
48425,-11.64
48439,1.49
48452,9.29
48465,-10.08
48479,1.30
48492,8.35
48505,-8.76
48519,0.27
48532,7.67
48545,-8.52
48559,1.30
48572,8.78
48586,-10.23
48599,0.33
48612,8.94
48625,-8.68
48638,0.28
48652,8.54
48665,-8.61
48679,0.35
48692,8.15
48705,-9.09
48719,0.36
48732,8.68
48745,-8.58
48759,0.44
48772,8.36
48785,-8.79
48798,-0.36
48812,8.96
48825,-7.60
48838,-1.47
48852,8.03
48865,-6.89
48879,-0.30
48892,8.13
48905,-7.80
48918,-1.06
48932,8.04
48945,-6.55
48959,-1.28
48972,7.66
48985,-6.27
48999,-0.93
49012,7.44
49025,-6.67
49038,-1.80
49052,8.41
49065,-5.84
49079,-2.18
49092,7.66
49105,-5.93
49119,-1.69
49132,7.85
49145,-5.43
49159,-2.73
49172,7.30
49185,-4.75
49199,-1.92
49212,7.25
49225,-5.42
49239,-2.34
49252,7.43
49265,-4.83
49279,-2.77
49292,7.83
49305,-4.04
49319,-4.13
49332,6.90
49345,-3.21
49359,-2.84
49372,7.05
49385,-4.12
49399,-3.63
49412,7.10
49425,-3.52
49439,-3.18
49452,6.94
49465,-3.16
49479,-3.48
49492,76.43
49505,-296.68
49519,292.53
49532,205.21
49545,-253.67
49559,-297.85
49572,71.12
49585,298.90
49599,162.51
49612,-104.92
49625,-222.15
49639,-108.24
49652,71.01
49665,123.45
49679,66.82
49692,-5.08
49705,-54.25
49719,-45.87
49732,-4.96
49745,7.92
49758,9.84
49772,16.96
49785,3.24
49799,-5.79
49812,4.00
49825,-4.12
49839,-8.12
49852,5.33
49865,-1.10
49879,-5.35
49892,7.06
49905,-0.10
49918,-4.61
49932,7.21
49945,-0.02
49958,-6.75
49972,5.14
49985,-0.35
49999,-6.74
50012,6.60
50025,0.63
50038,-6.73
50052,6.52
50065,0.92
50078,-6.53
50092,5.94
50105,0.71
50119,-7.81
50132,5.62
50145,2.00
50159,-7.26
50172,6.42
50185,1.69
50199,-8.39
50212,5.82
50225,2.14
50239,-7.61
50252,6.04
50265,1.73
50279,-8.10
50292,5.95
50305,2.16
50319,-8.43
50332,6.73
50345,2.43
50359,-9.16
50372,6.03
50385,2.59
50398,-8.48
50412,6.41
50425,2.38
50439,-8.91
50452,6.05
50465,3.31
50479,-10.00
50492,6.47
50505,4.21
50519,-10.07
50532,5.64
50545,3.74
50559,-9.73
50572,6.24
50585,4.11
50599,-10.63
50612,6.57
50625,4.37
50639,-11.07
50652,6.15
50665,4.62
50679,-10.47
50692,6.40
50705,4.32
50719,-10.92
50732,6.07
50745,5.28
50759,-11.98
50772,6.50
50785,6.18
50799,-11.90
50812,5.01
50825,6.39
50839,-11.34
50852,5.70
50865,5.34
50879,-11.65
50892,5.90
50905,6.80
50919,-11.58
50932,4.43
50945,5.93
50959,-11.67
50972,6.22
50985,7.56
50999,-13.35
51012,4.45
51025,7.90
51039,-11.96
51052,4.98
51065,7.26
51079,-12.72
51092,4.92
51105,7.74
51119,-12.32
51132,4.92
51145,7.48
51159,-12.54
51172,4.88
51185,7.72
51199,-13.08
51212,5.61
51225,8.10
51239,-13.67
51252,4.99
51265,8.26
51279,-13.05
51292,5.31
51305,8.01
51319,-13.49
51332,5.12
51345,8.16
51359,-13.23
51372,5.26
51385,8.27
51399,-13.83
51412,5.20
51425,9.31
51439,-13.99
51452,4.09
51465,8.92
51479,-13.18
51492,5.03
51505,8.97
51519,-13.89
51532,4.39
51545,8.92
51559,-13.49
51572,4.62
51585,9.51
51599,-13.65
51612,3.38
51625,9.75
51639,-13.15
51652,4.52
51665,9.53
51679,-15.27
51692,4.56
51705,10.94
51719,-15.21
51732,4.99
51745,10.52
51759,-14.70
51772,3.08
51785,9.65
51799,-11.67
51812,3.26
51825,8.25
51839,-11.51
51852,2.95
51865,8.10
51879,-11.15
51892,3.38
51905,8.59
51919,-13.24
51932,4.51
51945,10.28
51959,-13.71
51972,1.63
51985,9.80
51999,-11.19
52012,3.58
52025,9.83
52039,-14.05
52052,1.89
52065,10.90
52079,-12.12
52092,2.55
52105,9.99
52119,-12.39
52132,1.66
52145,9.96
52159,-11.49
52172,2.29
52185,9.49
52199,-11.59
52212,1.31
52225,9.43
52239,-10.38
52252,1.44
52265,9.76
52279,-10.91
52292,0.42
52309,9.31
52318,-9.53
52332,0.66
52345,8.81
52358,-8.21
52372,-0.72
52385,7.70
52398,-7.48
52412,0.48
52425,7.77
52439,-8.33
52452,-0.09
52465,8.03
52478,-7.72
52492,0.18
52505,7.81
52519,-7.95
52532,-0.64
52545,8.41
52558,-6.73
52572,-1.75
52585,7.46
52599,-6.06
52612,-0.60
52625,7.56
52638,-6.95
52652,-1.35
52665,7.65
52678,-6.34
52692,-0.89
52705,7.48
52718,-5.98
52732,-1.81
52745,7.05
52759,-5.34
52772,-1.13
52785,6.92
52799,-5.81
52812,-2.11
52825,7.68
52838,-4.35
52852,-3.31
52865,7.21
52878,-4.55
52892,-2.45
52905,7.30
52919,-4.06
52932,-2.92
52945,6.20
52959,-4.39
52972,-2.23
52985,7.88
52999,-4.71
53012,-3.75
53025,7.57
53038,-2.65
53052,-4.48
53065,5.84
53078,-2.60
53092,-3.03
53105,7.54
53118,-3.79
53132,-4.62
53145,7.48
53158,-2.89
53172,-4.14
53185,7.22
53198,-3.27
53212,-4.14
53225,7.49
53238,-3.11
53252,-4.23
53265,7.13
53279,-2.42
53292,-5.51
53305,7.53
53319,-1.41
53332,-5.47
53345,6.75
53358,-1.89
53372,-5.18
53385,7.30
53398,-1.70
53412,-5.27
53425,6.33
53438,-0.97
53452,-5.41
53465,6.62
53479,-1.11
53492,-5.83
53505,6.59
53518,-0.66
53532,-5.47
53545,6.31
53559,-0.45
53572,-6.43
53585,6.01
53598,0.39
53612,-5.62
53625,5.86
53638,-0.36
53652,-6.22
53665,6.70
53679,-0.42
53692,-7.01
53705,7.66
53718,0.96
53732,-8.39
53745,5.61
53759,1.50
53772,-5.79
53785,5.88
53798,0.44
53812,-8.47
53825,6.76
53838,2.78
53852,-7.89
53865,5.40
53879,1.48
53892,-7.84
53905,6.31
53918,2.12
53932,-7.92
53945,5.87
53959,1.82
53972,-7.92
53985,6.02
53998,2.09
54012,-8.54
54025,6.51
54038,3.09
54052,-9.16
54065,72.21
54079,-266.30
54092,229.40
54105,242.39
54119,-210.06
54132,-328.99
54145,26.71
54159,303.77
54172,193.22
54185,-78.95
54199,-223.97
54212,-140.18
54225,53.98
54239,134.67
54252,76.64
54265,2.08
54279,-47.65
54292,-55.88
54305,-10.20
54319,12.10
54332,3.64
54345,17.93
54359,11.40
54372,-10.44
54385,3.11
54398,2.04
54412,-14.32
54425,4.92
54438,5.02
54452,-11.51
54465,5.03
54479,7.25
54492,-8.51
54505,5.89
54519,5.38
54532,-11.49
54545,4.47
54558,4.91
54572,-11.98
54585,5.61
54598,7.20
54612,-11.28
54625,5.19
54638,7.14
54652,-12.08
54665,4.10
54678,6.92
54692,-11.34
54705,4.84
54718,6.93
54732,-11.82
54745,4.52
54758,7.09
54772,-11.44
54785,4.73
54798,6.98
54812,-11.71
54825,4.52
54838,6.95
54852,-11.60
54866,4.66
54878,7.20
54892,-12.23
54905,5.30
54918,7.67
54932,-13.48
54945,5.36
54958,8.23
54972,-13.24
54985,4.47
54998,8.84
55012,-12.67
55025,4.04
55038,7.98
55052,-12.06
55065,3.92
55078,8.02
55093,-11.61
55105,3.96
55118,8.26
55132,-12.84
55145,3.48
55158,9.20
55172,-11.81
55185,3.41
55198,8.21
55212,-11.76
55225,2.88
55238,8.18
55252,-10.24
55265,2.73
55278,7.39
55292,-10.47
55305,3.00
55319,7.55
55332,-10.58
55345,2.90
55358,7.80
55372,-11.05
55385,3.61
55399,8.06
55412,-11.76
55425,2.98
55438,8.14
55452,-10.40
55465,2.67
55478,7.50
55492,-10.32
55505,2.88
55518,8.10
55532,-11.37
55545,2.33
55558,8.89
55572,-10.43
55585,2.27
55598,8.10
55612,-10.98
55625,2.42
55638,8.60
55652,-10.68
55665,2.35
55678,8.36
55692,-10.68
55705,1.71
55719,8.96
55732,-9.59
55745,0.49
55758,7.98
55772,-8.88
55785,1.69
55798,8.12
55812,-9.76
55825,0.94
55838,8.19
55852,-9.16
55865,1.38
55879,8.02
55892,-8.81
55905,0.47
55918,7.59
55932,-8.16
55945,1.15
55959,7.31
55972,-8.15
55985,0.14
55998,7.01
56012,-6.51
56025,0.09
56038,6.96
56052,-7.51
56065,-0.15
56079,63.74
56092,-239.43
56105,246.70
56119,117.57
56132,-170.68
56145,-198.85
56158,36.14
56172,192.66
56185,127.31
56198,-50.95
56212,-155.89
56225,-87.10
56238,37.18
56252,78.20
56265,57.19
56278,9.28
56292,-39.13
56305,-32.78
56318,-5.53
56332,-2.29
56345,8.40
56358,15.82
56372,-0.96
56385,-0.66
56398,5.22
56411,-8.02
56425,-3.86
56438,6.76
56452,-5.56
56465,-2.63
56478,7.39
56492,-4.33
56505,-1.01
56518,8.22
56532,-4.98
56545,-2.69
56559,6.60
56572,-5.75
56585,-2.47
56598,6.96
56611,-3.06
56625,-3.22
56638,5.34
56652,-1.97
56665,-1.33
56678,5.12
56692,-4.80
56705,-2.93
56718,6.92
56732,-3.63
56745,-2.80
56759,7.43
56772,-3.91
56785,-3.74
56798,6.92
56812,-3.58
56825,-3.16
56838,7.08
56852,-3.71
56865,-3.94
56878,7.13
56892,-2.42
56905,-4.08
56918,6.46
56932,-3.01
56945,-4.48
56958,7.53
56972,-1.77
56985,-4.69
56998,6.15
57012,-2.73
57025,-4.35
57038,7.22
57052,-2.02
57065,-4.47
57078,6.62
57092,-2.35
57105,-5.20
57118,7.50
57132,-1.88
57145,-4.98
57158,6.09
57172,-1.35
57188,-5.19
57198,7.24
57211,-0.85
57225,-6.23
57238,5.99
57251,-0.89
57265,-5.20
57278,6.89
57291,-0.87
57305,-5.82
57318,6.33
57332,-0.98
57345,-5.58
57358,6.61
57372,-0.71
57385,-6.26
57398,7.20
57412,-0.39
57425,-6.84
57438,6.61
57452,-0.20
57465,-6.20
57478,6.93
57492,-0.46
57505,-6.49
57518,6.10
57532,0.68
57545,-7.14
57558,6.87
57572,1.14
57585,-7.74
57598,5.00
57612,1.56
57625,-6.07
57638,6.55
57652,0.55
57665,-7.78
57678,5.66
57692,1.50
57705,-7.04
57718,5.63
57732,2.29
57745,-7.44
57758,5.15
57772,2.39
57785,-8.13
57799,5.56
57812,2.60
57825,-8.43
57838,5.49
57852,3.10
57865,-7.91
57878,5.42
57892,2.51
57905,-8.44
57918,5.36
57932,2.85
57945,-8.06
57959,5.52
57972,2.78
57985,-8.22
57998,5.39
58012,2.89
58025,-8.85
58038,6.10
58052,3.30
58065,-9.38
58078,5.38
58091,4.12
58105,-9.44
58118,5.30
58131,4.56
58145,-9.96
58158,5.60
58171,4.47
58185,-10.56
58198,5.42
58211,5.06
58225,-9.85
58238,5.50
58252,4.53
58265,-10.42
58278,5.37
58292,4.80
58305,-10.07
58318,5.52
58332,4.74
58345,-10.21
58358,5.42
58372,4.87
58385,-10.84
58398,6.13
58411,5.27
58425,-11.38
58438,5.54
58452,5.60
58465,-11.25
58478,5.88
58492,6.39
58505,-11.88
58518,4.39
58532,6.31
58545,-9.71
58558,3.71
58571,5.54
58585,-10.43
58598,6.51
58611,6.58
58625,-13.02
58638,2.63
58652,7.31
58665,-9.39
58678,6.14
58692,6.44
58705,-13.23
58718,3.64
58732,7.25
58745,-10.77
58758,5.18
58772,6.84
58785,-11.28
58798,3.69
58811,6.40
58825,-10.35
58838,4.61
58852,6.48
58865,-11.68
58878,4.88
58892,7.07
58905,-11.79
58918,4.50
58932,7.11
58945,-11.43
58959,4.51
58972,7.52
58985,-12.44
58998,4.19
59012,7.61
59025,-10.78
59038,3.70
59052,7.68
59065,-12.10
59078,3.11
59092,8.87
59105,-11.45
59118,3.87
59132,8.26
59145,-12.89
59159,3.27
59172,9.04
59185,-11.72
59198,3.67
59212,8.53
59225,-12.45
59238,3.37
59252,8.73
59265,-12.10
59278,3.57
59292,8.71
59305,-12.21
59318,3.47
59332,8.52
59345,-11.56
59359,2.83
59372,8.01
59385,-10.35
59398,2.74
59412,7.30
59425,-9.77
59438,2.18
59452,7.65
59465,-10.07
59478,2.26
59492,8.14
59505,-9.92
59518,1.99
59532,7.17
59545,-9.90
59558,3.28
59572,7.99
59585,-11.70
59598,2.26
59612,9.12
59625,-10.23
59638,2.23
59652,7.90
59665,-11.12
59678,2.44
59692,8.72
59705,-10.42
59718,1.73
59731,8.99
59745,-10.36
59758,1.11
59771,8.37
59785,-9.40
59798,1.14
59812,8.46
59825,-9.77
59838,1.92
59851,8.30
59865,-10.17
59878,0.60
59892,8.49
59905,-8.57
59918,1.59
59932,7.84
59945,-9.92
59958,0.97
59972,8.15
59985,-8.44
59998,0.71
60012,7.60
60025,-8.12
60038,0.40
60051,8.10
60065,-8.25
60078,-0.36
60092,7.81
60105,-7.64
60118,0.43
60132,7.80
60145,-7.52
60158,-0.83
60172,7.26
60185,-6.70
60198,0.10
60211,7.24
60225,-7.38
60238,-0.35
60251,7.40
60265,-6.96
60278,-0.14
60292,7.29
60305,-7.19
60318,-0.26
60332,7.17
60345,-6.44
60358,-1.01
60372,7.45
60385,-6.59
60398,-0.84
60411,7.81
60425,-6.63
60438,-1.32
60452,7.45
60465,-6.33
60478,-1.51
60491,8.42
60505,-6.02
60518,-2.20
60532,6.97
60545,-5.20
60558,-1.08
60571,6.85
60585,-5.99
60598,-1.37
60611,7.09
60625,-4.76
60638,-2.86
60652,7.71
60665,-4.72
60678,-3.01
60692,7.05
60705,-3.79
60718,-2.65
60732,7.00
60745,-5.23
60758,-2.72
60771,7.67
60785,-3.40
60798,-3.42
60811,6.63
60825,-4.17
60838,-3.40
60851,7.26
60865,-2.84
60878,-3.39
60891,6.34
60905,-4.01
60918,-2.92
60932,7.50
60945,-3.83
60958,-3.77
60972,6.68
60985,-2.94
60998,-3.54
61011,6.07
61025,-1.76
61038,-3.87
61052,6.35
61065,-3.24
61078,-4.57
61092,6.76
61105,-0.97
61118,-3.99
61131,5.86
61145,-3.31
61158,-4.25
61172,6.95
61185,-1.14
61198,-4.28
61211,5.76
61225,-3.16
61238,-4.20
61252,7.68
61265,-1.86
61278,-4.61
61292,5.46
61305,-1.12
61318,-5.29
61332,6.66
61345,-1.01
61359,-5.46
61372,6.07
61385,-0.13
61398,-5.21
61411,5.12
61425,-0.92
61438,-4.84
61452,6.10
61465,-0.42
61478,-5.18
61492,5.45
61505,-0.60
61518,-5.84
61531,7.09
61545,-0.69
61558,-6.63
61572,6.31
61585,0.65
61598,-5.83
61611,5.45
61625,-0.48
61638,-5.98
61652,6.83
61665,0.14
61678,-7.19
61692,6.44
61705,0.93
61718,-6.54
61731,5.28
61745,1.01
61758,-6.86
61772,6.00
61785,1.35
61798,-7.23
61811,5.65
61825,1.63
61838,-7.59
61852,6.34
61865,1.75
61878,-8.35
61892,5.81
61905,2.15
61918,-7.55
61931,6.12
61945,1.77
61958,-8.12
61972,5.88
61985,2.10
61998,-8.46
62011,6.58
62025,3.26
62038,-10.44
62052,6.35
62065,3.69
62078,-9.10
62092,6.15
62105,2.94
62118,-9.84
62131,5.65
62145,4.08
62158,-8.39
62172,5.60
62185,2.69
62198,-9.51
62212,5.78
62225,3.70
62238,-8.74
62252,5.61
62265,3.82
62283,-9.88
62291,5.11
62305,4.70
62318,-9.72
62331,5.73
62345,4.45
62358,-10.65
62371,5.35
62385,5.04
62398,-9.84
62412,5.52
62425,4.54
62438,-10.41
62451,5.37
62465,4.80
62478,-10.07
62492,5.52
62505,4.90
62518,-10.70
62532,5.45
62545,5.92
62558,-10.86
62571,4.34
62585,5.54
62598,-10.04
62611,5.28
62625,5.59
62638,-10.76
62652,4.64
62665,5.54
62678,-10.36
62692,4.87
62705,6.13
62718,-10.52
62731,3.63
62745,6.37
62758,-10.02
62771,4.77
62785,6.15
62798,-12.14
62811,4.81
62825,7.40
62838,-11.44
62851,4.57
62865,7.06
62878,-12.30
62892,5.26
62905,7.48
62918,-12.86
62931,4.72
62945,7.92
62958,-12.62
62971,5.07
62985,8.79
62998,-13.98
63012,4.37
63025,8.76
63038,-12.96
63051,4.86
63065,7.77
63078,-12.16
63091,4.27
63105,8.15
63118,-12.06
63131,3.58
63145,7.59
63158,-11.68
63171,4.49
63185,8.07
63198,-12.00
63211,3.81
63225,7.51
63238,-11.28
63251,3.32
63265,8.05
63278,-11.33
63291,3.44
63305,8.32
63318,-11.44
63332,2.93
63345,7.96
63358,-11.28
63371,3.40
63385,8.27
63398,-11.34
63411,3.12
63425,8.05
63438,-11.38
63451,3.23
63465,8.17
63478,-11.32
63491,3.22
63505,8.13
63518,-11.35
63531,3.20
63545,8.29
63558,-11.99
63572,3.88
63585,8.52
63598,-11.90
63611,2.62
63625,8.31
63638,-10.72
63652,3.52
63665,7.72
63678,-11.00
63691,1.54
63705,9.07
63718,-10.03
63731,1.52
63745,8.68
63759,-10.26
63772,1.45
63785,8.64
63798,-10.25
63811,1.55
63825,8.79
63838,-10.18
63852,1.50
63865,8.52
63878,-9.61
63892,0.83
63905,8.19
63918,-9.01
63932,1.43
63945,8.01
63958,-9.65
63972,1.11
63985,8.11
63998,-8.56
64011,0.62
64025,7.43
64038,-7.61
64051,0.40
64065,6.91
64078,-7.42
64091,0.11
64105,7.84
64118,-7.88
64131,0.08
64145,7.72
64158,-8.08
64172,0.17
64185,7.94
64198,-7.21
64211,-0.69
64225,7.17
64238,-6.87
64251,0.02
64265,7.12
64278,-6.66
64291,-0.97
64305,6.87
64318,-5.78
64331,-0.40
64345,7.21
64358,-7.29
64371,-1.19
64385,7.93
64398,-5.50
64411,-1.78
64425,6.78
64438,-5.39
64452,-1.59
64465,7.09
64478,-4.67
64492,-2.30
64505,6.63
64518,-5.46
64531,-1.68
64545,8.06
64558,-5.00
64572,-2.52
64585,6.17
64598,-4.45
64611,-2.06
64625,7.14
64638,-4.38
64652,-2.76
64665,6.72
64678,-4.13
64692,-2.35
64705,6.75
64718,-4.44
64731,-2.60
64745,6.80
64758,-4.20
64773,-2.41
64785,6.81
64798,-4.16
64811,-3.33
64824,8.07
64838,-4.44
64851,-4.07
64865,7.44
64878,-2.98
64892,-3.23
64905,6.41
64918,-3.51
64931,-3.94
64945,6.90
64958,-2.15
64972,-4.14
64985,6.84
64998,-2.75
65012,-4.93
65025,6.79
65038,-1.93
65051,-4.11
65065,6.86
65078,-2.54
65092,-4.73
65105,6.71
65118,-2.25
65131,-4.37
65145,6.72
65158,-1.67
65172,-5.19
65185,6.24
65198,-0.98
65212,-5.22
65225,6.77
65238,-1.21
65251,-6.08
65265,6.44
65278,-0.59
65292,-5.27
65305,6.60
65318,-1.10
65331,-5.85
65345,6.45
65358,-0.85
65371,-5.51
65385,6.45
65398,-0.10
65411,-6.97
65425,6.64
65438,0.81
65451,-6.92
65465,5.92
65478,0.38
65492,-6.59
65505,6.49
65518,0.57
65531,-6.86
65545,6.14
65558,0.61
65571,-7.38
65585,6.98
65598,1.06
65611,-7.96
65625,6.19
65638,2.00
65651,-8.66
65665,6.80
65678,2.69
65692,-9.07
65705,5.85
65718,2.38
65731,-8.51
65745,6.56
65758,2.54
65771,-8.87
65785,6.14
65798,2.57
65811,-9.37
65825,7.01
65838,3.04
65851,-9.95
65865,6.36
65878,3.17
65891,-9.34
65905,6.53
65918,3.57
65932,-10.45
65945,5.96
65958,4.43
65971,-10.25
65985,6.59
65998,4.15
66011,-11.23
66025,6.18
66038,4.75
66052,-10.39
66065,6.38
66078,4.41
66092,-11.46
66105,6.25
66118,5.72
66131,-11.30
66145,5.26
66158,5.24
66172,-10.64
66185,6.09
66198,5.28
66211,-11.32
66225,5.34
66238,6.06
66252,-12.22
66265,6.02
66278,7.09
66292,-12.34
66305,5.07
66318,6.53
66332,-12.03
66345,5.69
66358,6.78
66372,-12.26
66385,5.36
66398,6.82
66411,-12.79
66425,6.19
66438,7.26
66452,-13.38
66465,5.39
66478,8.04
66492,-13.43
66505,5.34
66518,8.36
66532,-13.28
66545,4.98
66558,7.88
66572,-13.34
66585,5.36
66598,8.29
66611,-13.26
66625,5.14
66638,7.86
66651,-12.73
66665,4.53
66678,7.46
66692,-11.44
66705,4.30
66718,7.68
66731,-12.86
66745,5.00
66758,8.20
66772,-12.98
66785,5.18
66798,7.84
66812,-14.26
66825,6.07
66838,9.10
66851,-14.28
66865,5.14
66878,8.81
66892,-15.22
66905,6.33
66918,11.09
66931,-18.65
66945,7.12
66958,12.94
66971,-21.97
66985,8.78
66998,15.40
67011,-24.81
67025,8.86
67038,16.01
67052,-23.80
67065,6.78
67078,14.80
67092,-19.25
67105,5.69
67118,11.87
67131,-16.43
67145,4.29
67158,10.97
67171,-15.38
67184,4.92
67198,10.76
67211,-14.40
67224,3.08
67238,9.54
67251,-12.53
67265,3.97
67278,9.14
67291,-13.22
67304,3.69
67318,9.23
67331,-13.02
67344,3.85
67358,9.49
67371,-13.65
67385,4.45
67398,9.73
67411,-14.14
67424,3.22
67438,10.66
67451,-13.06
67465,3.01
67478,9.80
67491,-13.37
67505,3.42
67518,10.25
67531,-13.37
67544,2.95
67558,10.68
67571,-13.99
67585,2.76
67598,11.20
67611,-12.77
67625,1.98
67638,9.48
67651,-11.87
67665,3.07
67678,9.87
67691,-13.40
67705,1.76
67718,11.57
67732,-11.17
67745,0.32
67758,9.48
67771,-11.12
67785,1.82
67798,10.19
67811,-10.95
67825,0.27
67838,9.52
67851,-10.03
67864,1.29
67878,9.30
67891,-10.20
67904,0.10
67918,9.12
67931,-9.13
67944,0.96
67958,8.68
67971,-9.37
67985,-0.18
67998,8.57
68011,-8.12
68024,0.03
68038,8.95
68051,-8.63
68065,-1.00
68078,8.63
68091,-7.91
68104,-0.10
68118,8.67
68131,-7.80
68144,-1.39
68158,8.11
68171,-6.99
68185,-0.46
68198,8.10
68211,-7.67
68224,-0.91
68238,8.10
68251,-6.60
68265,-1.37
68278,7.61
68291,-6.12
68305,-1.55
68318,8.14
68331,-6.27
68345,-2.35
68358,7.82
68371,-5.67
68385,-1.56
68398,7.81
68411,-5.55
68425,-2.97
68438,7.78
68451,-4.91
68465,-2.45
68478,7.10
68492,-4.19
68505,-2.61
68518,6.51
68531,-3.68
68545,-3.17
68558,6.24
68571,-3.08
68585,-2.53
68598,6.30
68611,-4.18
68625,-2.90
68638,7.63
68651,-4.46
68665,-3.63
68678,7.57
68691,-3.20
68705,-4.22
68718,7.49
68731,-3.89
68745,-3.57
68758,7.94
68771,-4.12
68785,-3.77
68798,92.94
68811,-353.60
68825,328.21
68838,279.20
68852,-301.63
68865,-375.88
68878,77.03
68892,327.37
68905,251.78
68918,-86.89
68931,-318.19
68945,-164.66
68958,94.39
68971,173.70
68985,93.38
68998,-9.81
69011,-74.85
69025,-62.74
69038,-7.07
69051,12.14
69065,15.53
69078,23.17
69091,3.84
69105,-8.08
69118,3.72
69132,-6.29
69145,-9.92
69158,6.96
69171,-0.63
69185,-6.76
69198,8.49
69211,0.73
69225,-5.66
69238,8.43
69251,-0.59
69265,-8.45
69278,7.36
69291,-0.89
69305,-8.56
69318,7.93
69331,0.57
69345,-7.04
69358,8.47
69371,0.07
69385,-8.87
69398,8.25
69411,0.20
