Time (ms),EMG Value
2002,-0.61
2015,1.77
2029,-1.06
2042,-0.70
2056,0.98
2069,-0.07
2082,-1.14
2095,1.64
2109,0.13
2122,-1.26
2136,0.05
2149,-0.20
2162,0.18
2176,1.36
2189,-0.44
2202,-1.04
2216,0.55
2229,-0.08
2242,-0.98
2256,1.69
2269,0.26
2282,-1.84
2296,0.87
2309,0.39
2322,-1.12
2336,1.27
2349,0.17
2363,-1.58
2375,1.06
2389,0.31
2402,-1.33
2415,1.20
2429,0.28
2442,-1.44
2456,1.11
2469,0.25
2482,-1.57
2496,1.79
2509,-0.40
2522,-1.78
2535,1.70
2549,0.86
2563,-1.59
2576,0.51
2589,-0.04
2602,-1.16
2616,1.59
2629,0.46
2643,-1.56
2656,0.89
2669,0.14
2682,-1.38
2696,1.25
2709,0.35
2722,-1.39
2735,1.12
2749,0.24
2762,-1.43
2775,0.98
2789,0.92
2802,-2.08
2815,0.77
2829,0.83
2842,-0.67
2856,0.17
2869,0.96
2882,-2.02
2896,0.46
2909,0.69
2922,-0.46
2935,1.45
2949,-0.30
2963,-2.11
2975,0.98
2989,0.64
3002,-0.99
3015,1.27
3029,0.13
3042,-1.61
3060,1.05
3069,0.29
3082,-1.35
3096,1.19
3109,0.29
3122,-1.42
3135,0.97
3149,0.91
3162,-2.09
3175,0.76
3189,0.83
3202,-0.82
3215,0.97
3229,-0.36
3242,-1.72
3255,1.40
3269,0.72
3283,-1.22
3296,0.84
3309,0.66
3322,-2.22
3335,1.41
3349,-1.80
3362,2.60
3376,1.83
3389,-2.99
3402,-3.54
3416,2.66
3429,3.04
3442,-0.59
3456,-0.34
3469,-1.52
3482,-1.85
3496,1.81
3509,1.90
3523,-1.42
3536,-1.24
3549,3.84
3562,-2.52
3576,-2.72
3589,3.29
3603,0.55
3616,-1.09
3629,-0.87
3642,-0.57
3656,2.31
3669,0.43
3682,-2.05
3696,0.43
3709,0.86
3723,-1.69
3736,0.33
3749,1.57
3762,-0.30
3776,-0.26
3789,-0.30
3803,-1.21
3816,1.43
3829,0.27
3842,-0.49
3856,-0.27
3869,1.10
3882,-1.23
3896,0.14
3909,0.29
3923,-0.06
3936,-0.64
3949,2.48
3962,-2.20
3976,-0.43
3989,1.02
4003,-0.55
4016,-0.32
4029,1.83
4042,-0.54
4056,-0.35
4069,0.04
4082,-2.52
4096,1.88
4109,2.07
4123,-2.40
4136,1.06
4149,0.32
4163,-2.00
4176,0.63
4189,2.72
4203,-2.03
4216,-0.86
4229,1.21
4242,-2.02
4256,1.48
4269,1.85
4282,-1.68
4296,-0.59
4309,1.49
4323,-1.17
4336,-0.56
4349,1.22
4362,-0.96
4375,0.28
4389,1.02
4403,-0.53
4416,-0.14
4429,0.65
4443,-1.78
4456,0.13
4469,1.49
4482,-0.09
4496,-0.13
4509,0.39
4522,-1.94
4536,0.03
4549,2.28
4562,-0.70
4576,-0.56
4589,0.86
4602,-1.40
4615,0.02
4629,1.05
4642,0.01
4656,-1.20
4669,2.10
4682,-0.75
4696,-2.53
4709,2.23
4722,0.77
4736,-2.76
4749,4.38
4762,-2.38
4776,-2.74
4789,2.62
4802,-0.26
4816,0.04
4829,5.05
4842,-6.72
4856,-3.61
4869,5.20
4882,3.64
4896,-0.56
4909,-2.62
4923,-3.78
4936,0.76
4949,4.28
4962,-0.16
4976,-0.84
4989,1.01
5002,-2.04
5016,-1.81
5029,1.91
5042,0.04
5056,1.33
5069,1.50
5082,-2.51
5096,-2.63
5109,1.65
5122,1.47
5136,0.65
5149,1.05
5162,-1.91
5176,-3.07
5189,1.62
5202,1.98
5216,-0.77
5236,2.96
5242,-3.68
5256,-1.27
5269,1.83
5282,1.10
5296,-1.05
5309,0.72
5322,-0.62
5336,-1.06
5349,0.85
5362,0.50
5376,-0.58
5389,1.51
5402,-0.49
5416,-1.66
5429,0.18
5442,0.20
5456,0.44
5469,1.32
5482,-0.47
5496,-1.82
5509,1.21
5522,0.36
5536,-1.48
5549,1.12
5562,0.27
5576,-0.58
5589,0.50
5602,-0.24
5616,-1.01
5629,1.67
5642,0.30
5656,-2.60
5669,1.86
5682,-0.07
5696,-1.48
5709,2.83
5722,-0.07
5736,-3.33
5749,0.49
5762,1.65
5776,0.13
5789,1.15
5803,-0.97
5816,-1.68
5829,-1.60
5842,2.46
5855,3.33
5869,-1.03
5882,-3.96
5896,-2.27
5909,4.07
5922,3.16
5936,-1.47
5949,-1.15
5962,-1.66
5976,-1.49
5989,2.40
6002,1.49
6015,-1.05
6029,0.75
6042,-0.32
6056,-1.63
6069,0.44
6082,1.09
6095,-0.85
6109,0.71
6122,-0.43
6135,-0.46
6149,0.40
6162,0.83
6176,-0.76
6189,0.09
6202,1.89
6216,-4.25
6229,-0.44
6242,3.90
6256,1.65
6269,-1.11
6282,-2.57
6296,-1.94
6309,1.08
6322,3.18
6336,1.07
6349,-2.37
6362,-0.89
6376,-0.43
6389,1.64
6403,0.57
6416,-2.43
6429,0.88
6442,1.94
6456,-1.29
6469,-0.42
6482,0.54
6496,-0.77
6509,0.88
6522,-0.30
6536,-1.18
6549,1.15
6562,1.37
6576,-1.26
6589,-0.11
6602,0.01
6616,-1.65
6629,0.90
6642,2.67
6656,-1.36
6669,-0.53
6682,-0.68
6696,-0.71
6709,1.31
6722,1.89
6735,-1.94
6749,-0.87
6762,0.84
6776,0.07
6789,0.40
6802,0.70
6816,-2.02
6829,-0.21
6842,2.13
6856,-0.68
6869,-0.47
6882,0.93
6896,-1.39
6909,-0.16
6922,1.66
6936,-1.00
6949,-0.14
6962,0.67
6976,-0.54
6989,0.09
7002,0.87
7016,-1.70
7029,0.23
7042,0.60
7056,1.16
7069,-0.14
7082,-1.82
7096,0.17
7109,-1.34
7122,3.72
7136,1.07
7149,-2.66
7162,-2.47
7176,-1.29
7189,4.41
7202,3.95
7216,-3.09
7229,-2.65
7242,-2.26
7255,0.50
7269,4.10
7282,2.39
7296,-2.46
7309,-2.39
7322,-0.46
7335,0.17
7349,1.97
7362,0.24
7375,1.32
7389,-3.67
7402,0.10
7415,3.24
7429,-0.09
7442,-3.44
7456,-0.98
7469,3.18
7482,2.33
7496,-1.65
7509,-2.44
7522,1.07
7535,-0.53
7549,0.32
7562,0.48
7575,1.66
7589,-1.47
7602,-2.03
7616,2.98
7629,-1.97
7642,1.41
7656,0.11
7669,-0.01
7682,-1.14
7696,-3.01
7709,3.12
7722,2.42
7736,0.21
7749,-1.42
7762,-1.42
7776,-2.05
7789,0.88
7802,2.94
7815,1.46
7829,-4.73
7842,-0.01
7856,4.20
7869,1.64
7882,-4.22
7896,-3.47
7909,1.03
7922,4.93
7936,0.33
7949,-2.18
7962,-0.64
7976,0.81
7989,-0.51
8002,-2.63
8016,3.85
8029,-0.94
8042,0.77
8056,1.27
8069,-3.31
8082,-0.94
8096,0.50
8109,1.11
8122,3.14
8136,1.37
8149,-6.88
8162,0.15
8176,3.86
8189,-0.55
8202,-0.17
8216,-2.80
8229,3.18
8242,-0.23
8256,-2.74
8269,3.51
8282,2.76
8296,-3.24
8309,-2.27
8322,-5.05
8336,3.84
8349,4.16
8362,2.67
8376,1.21
8389,-4.30
8402,-4.77
8416,-2.23
8429,1.75
8442,6.41
8456,3.95
8469,-3.20
8482,-3.77
8496,-2.68
8509,-0.19
8522,3.48
8536,2.80
8549,-0.71
8562,-3.36
8576,1.41
8589,0.38
8602,-1.10
8616,1.26
8629,-2.35
8642,0.60
8656,3.59
8669,-0.57
8682,-1.86
8696,-1.23
8709,-0.56
8722,0.99
8736,2.16
8749,0.29
8762,-1.00
8776,-2.89
8789,1.50
8802,3.32
8816,-1.64
8829,-3.22
8842,0.06
8856,4.65
8869,-2.19
8882,-0.30
8896,0.00
8909,1.00
8922,-0.12
8935,-2.72
8949,0.11
8962,2.61
8976,0.88
8989,-1.43
9002,-0.16
9016,-1.54
9029,1.10
9042,2.58
9056,-2.48
9069,-1.12
9082,1.73
9096,-0.21
9109,-1.65
9122,2.02
9136,1.27
9149,-1.56
9162,-0.02
9176,-0.56
9189,-1.87
9202,2.12
9216,1.44
9229,-0.87
9242,0.72
9256,-1.48
9269,-3.10
9282,4.00
9295,3.06
9309,-2.87
9322,-5.08
9336,4.07
9349,1.66
9362,0.32
9376,-1.21
9389,-3.34
9402,1.39
9416,3.20
9429,-0.54
9442,-0.93
9455,0.21
9469,-1.95
9482,-0.49
9495,3.48
9509,-1.38
9522,-2.05
9535,3.57
9549,0.27
9562,-1.93
9576,-1.69
9589,-0.71
9602,2.74
9616,1.99
9629,-2.87
9642,0.19
9656,0.75
9669,0.24
9682,-2.35
9696,2.21
9709,-0.38
9722,-0.69
9736,0.26
9749,0.13
9762,0.85
9776,1.49
9789,-3.31
9802,-1.44
9815,3.25
9829,-0.42
9842,0.18
9856,0.36
9869,-2.32
9882,3.21
9895,-2.74
9909,-0.79
9922,2.65
9936,1.50
9949,-0.75
9962,-6.53
9976,3.64
9989,3.36
10002,2.01
10016,-3.97
10029,-5.20
10042,3.16
10056,5.86
10069,-0.74
10082,-6.24
10095,2.26
10109,0.78
10122,0.47
10136,-0.15
10149,-1.20
10162,-0.34
10176,4.51
10189,-2.44
10202,-2.67
10215,1.13
10229,0.20
10242,-0.97
10256,2.72
10269,0.82
10282,1.11
10296,-5.51
10309,-2.50
10322,2.05
10336,8.72
10349,-1.37
10362,-5.67
10376,-1.55
10389,-1.81
10402,1.71
10415,7.67
10429,1.01
10442,-4.24
10456,-5.04
10469,-5.04
10482,7.01
10496,8.40
10509,-1.92
10522,-7.58
10535,-1.46
10549,2.93
10562,3.71
10576,-1.09
10589,-4.36
10602,0.78
10615,3.85
10629,1.22
10642,-4.29
10656,1.31
10669,-0.64
10682,-1.06
10695,1.07
10709,1.03
10722,-1.28
10735,2.98
10749,1.39
10762,-4.16
10776,-2.82
10789,-0.60
10802,3.25
10816,5.38
10829,-1.18
10842,-3.70
10856,-1.65
10869,-0.47
10882,1.06
10896,2.57
10909,0.27
10922,-1.16
10935,0.08
10949,-1.45
10962,0.18
10976,1.59
10989,-0.55
11002,-1.07
11015,1.10
11029,-0.42
11042,0.37
11055,1.13
11069,-1.76
11082,-1.75
11096,4.31
11109,-1.65
11122,-4.31
11135,5.05
11149,2.04
11162,-2.54
11176,-2.64
11189,-0.90
11202,1.65
11215,4.75
11229,-1.48
11242,-5.67
11255,4.31
11269,1.61
11282,-2.87
11296,-3.15
11309,2.68
11322,2.66
11336,2.67
11349,-4.88
11362,-4.89
11375,6.62
11389,2.37
11402,-3.20
11415,-1.64
11429,-1.46
11442,0.51
11455,4.73
11469,1.44
11482,-5.21
11496,1.54
11509,0.08
11522,-2.57
11536,0.06
11549,1.87
11562,0.50
11575,4.60
11589,-1.96
11602,-5.74
11615,-0.86
11628,2.31
11642,0.51
11655,6.63
11668,-3.71
11682,-5.88
11696,2.16
11709,3.59
11722,-0.42
11735,-2.24
11749,0.25
11762,-1.37
11775,3.10
11789,0.63
11802,-1.87
11816,-1.17
11829,0.76
11842,1.01
11855,0.69
11869,-1.55
11882,-1.00
11895,0.77
11909,1.40
11922,-0.56
11936,0.60
11949,-0.81
11962,-1.76
11975,1.68
11989,0.91
12002,-1.30
12015,0.80
12029,0.56
12042,-3.88
12055,3.36
12069,3.25
12082,-5.79
12095,0.88
12109,1.82
12122,-1.00
12136,0.68
12149,0.27
12162,-0.93
12176,1.20
12189,-0.35
12202,-2.04
12215,1.16
12229,0.86
12242,-0.85
12255,1.25
12268,-0.02
12282,-1.77
12295,0.96
12309,0.31
12322,-1.27
12335,1.11
12349,0.97
12362,-2.09
12375,0.73
12388,1.56
12402,-4.07
12415,4.32
12429,1.54
12442,-4.50
12455,-1.53
12469,1.60
12482,1.92
12495,2.56
12509,-1.12
12522,-3.98
12536,-1.04
12549,3.52
12562,0.53
12576,-0.43
12589,-1.50
12602,-0.83
12615,2.76
12629,1.50
12642,-3.20
12655,-1.09
12669,3.22
12682,-5.17
12695,3.45
12709,4.38
12722,-3.10
12736,-3.16
12749,0.85
12762,-1.04
12776,3.87
12789,1.10
12802,-1.68
12815,-2.88
12829,-2.18
12842,8.03
12855,-3.93
12869,-1.25
12882,-0.91
12895,3.10
12909,3.02
12922,-3.47
12935,-3.41
12949,0.16
12962,1.64
12975,3.24
12989,0.71
13002,-3.40
13015,-1.11
13029,1.99
13042,-0.63
13055,-0.42
13069,1.14
13082,-0.98
13095,0.16
13109,1.64
13122,-1.30
13135,-0.61
13149,1.19
13162,-1.14
13175,0.02
13189,0.59
13202,1.35
13215,-3.17
13229,2.25
13242,-0.15
13256,0.05
13269,0.29
13282,-2.13
13295,0.15
13309,2.45
13322,0.08
13335,-1.44
13349,0.17
13362,-0.97
13375,0.74
13389,1.09
13402,-0.81
13415,-0.25
13429,0.90
13442,-1.45
13455,0.04
13469,1.93
13482,-1.02
13495,-0.61
13509,1.17
13522,-1.72
13535,0.13
13549,2.86
13562,-3.76
13576,2.27
13589,2.36
13602,-4.75
13615,-0.14
13629,2.02
13642,0.33
13655,1.11
13669,0.66
13682,-3.51
13695,0.25
13709,1.64
13722,-2.77
13735,2.59
13749,2.14
13762,-2.43
13776,-0.12
13789,0.92
13802,-2.19
13815,-0.33
13829,2.59
13842,-0.07
13855,-0.39
13869,-0.17
13882,0.70
13895,-2.59
13909,-0.21
13922,0.32
13935,5.57
13949,0.56
13962,-6.01
13976,-4.96
13989,4.31
14002,2.43
14015,5.33
14029,-1.03
14042,-5.24
14055,-5.92
14069,2.60
14082,3.13
14095,6.11
14109,0.60
14122,-5.58
14135,-5.96
14149,1.27
14162,1.51
14175,8.36
14189,3.56
14202,-11.73
14215,-4.13
14229,2.08
14242,10.84
14255,-4.57
14269,-3.78
14282,1.85
14295,2.96
14309,-0.25
14322,-4.21
14335,-3.00
14349,3.89
14362,2.98
14376,0.17
14389,0.61
14402,-4.32
14415,-2.00
14429,5.42
14442,-0.08
14455,-3.96
14469,0.29
14482,2.04
14495,1.46
14509,0.59
14522,-2.02
14535,-1.91
14549,0.93
14562,-0.14
14575,0.91
14589,1.55
14602,-0.96
14615,-1.44
14629,0.77
14642,0.36
14655,-0.90
14669,1.34
14682,-0.11
14695,-1.88
14709,1.12
14722,0.52
14735,-0.07
14749,-0.77
14762,0.84
14775,0.28
14789,-0.17
14802,-1.54
14815,-0.36
14829,2.09
14842,0.63
14855,-1.57
14869,0.67
14882,-0.21
14895,-1.57
14909,1.39
14922,0.69
14935,-1.17
14949,1.07
14962,0.02
14975,-1.62
14989,1.10
15002,0.36
15015,-1.30
15029,1.20
15042,0.27
15055,-1.44
15069,0.95
15082,0.90
15095,-2.09
15109,0.77
15122,1.30
15135,-2.75
15149,3.15
15162,-0.01
15175,-2.07
15189,-0.66
15202,0.76
15215,-1.31
15229,4.87
15242,0.19
15255,-4.20
15269,-1.35
15282,0.44
15295,1.64
15309,2.34
15322,-0.27
15335,-2.36
15349,0.47
15362,-0.51
15375,1.03
15389,-1.96
15402,-0.26
15415,3.72
15429,2.27
15442,-4.02
15455,-4.98
15468,3.47
15482,2.01
15495,1.54
15509,-1.67
15522,4.70
15535,-9.49
15549,-2.09
15562,4.13
15575,9.37
15589,-0.60
15602,-7.13
15615,-6.47
15629,1.24
15642,9.74
15655,-0.57
15669,-1.43
15682,-3.13
15696,-0.13
15709,2.97
15722,1.22
15736,-7.73
15749,-1.31
15762,7.96
15775,4.47
15789,-2.39
15802,-1.77
15815,-8.48
15829,1.31
15842,3.66
15855,6.40
15869,-0.41
15882,-3.22
15895,-5.53
15909,0.47
15922,4.21
15935,1.39
15949,0.18
15962,-0.24
15975,-3.40
15989,-0.45
16002,1.54
16015,-0.07
16029,1.16
16042,1.87
16055,-2.03
16069,-1.54
16082,0.88
16102,-0.71
16109,0.48
16122,2.12
16135,-2.67
16148,1.58
16162,0.64
16175,-2.14
16189,0.21
16202,1.65
16215,-2.94
16229,2.63
16242,2.28
16255,-2.64
16269,-2.46
16282,0.49
16295,3.01
16309,-0.45
16322,-1.03
16335,-1.14
16349,3.19
16362,1.31
16375,-4.92
16389,-2.47
16402,3.37
16415,2.64
16429,-0.27
16442,0.11
16455,1.82
16469,-7.07
16482,-1.94
16495,4.92
16509,5.26
16522,-0.99
16535,-1.97
16549,-7.03
16562,3.77
16575,0.48
16589,1.49
16602,3.69
16615,-1.25
16629,-3.49
16642,-1.76
16655,-1.14
16669,2.52
16682,4.09
16695,-0.72
16709,-1.81
16722,-0.35
16735,-1.82
16749,0.17
16762,2.24
16775,-0.59
16789,-0.18
16802,1.22
16815,-1.38
16829,-0.42
16842,1.37
16855,-1.12
16869,-0.23
16882,1.45
16895,-1.11
16909,-0.25
16922,1.42
16935,-1.14
16949,-0.28
16962,1.39
16975,-1.16
16989,-0.28
17003,1.41
17015,-1.13
17029,-0.25
17042,1.27
17055,-0.49
17069,-0.95
17082,1.02
17095,-0.59
17109,0.31
17122,1.24
17135,-1.76
17149,-0.58
17162,1.52
17175,0.11
17189,-1.40
17202,1.56
17215,-0.46
17229,-0.38
17242,0.68
17255,-1.33
17268,-0.37
17282,1.57
17295,2.02
17309,-2.76
17322,-1.23
17335,0.00
17349,2.41
17362,2.00
17375,-2.88
17388,-1.94
17402,1.33
17415,0.92
17429,-0.62
17442,1.66
17455,-0.86
17468,-0.78
17482,0.41
17495,-0.73
17509,-0.39
17522,1.56
17535,0.86
17549,-3.26
17562,3.16
17575,0.17
17588,-2.11
17602,-0.83
17615,0.10
17629,1.42
17642,1.87
17655,0.63
17669,-4.10
17682,-0.25
17695,1.38
17709,0.92
17722,0.61
17735,-1.10
17749,-1.51
17762,1.99
17775,0.70
17788,-1.82
17802,0.55
17815,0.00
17829,-0.44
17842,0.79
17855,-0.05
17869,-1.00
17882,1.59
17895,0.06
17909,-2.16
17922,1.51
17935,-0.29
17949,-0.70
17962,1.21
17975,0.33
17988,-1.28
18002,0.97
18015,-0.34
18029,-1.03
18042,0.68
18055,0.35
18069,-0.58
18082,1.63
18095,-0.36
18109,-1.62
18122,0.13
18135,0.11
18149,0.37
18162,1.30
18175,-0.44
18189,-1.78
18202,1.24
18215,0.37
18229,-1.48
18242,1.10
18255,0.25
18269,-0.59
18282,0.50
18295,-0.24
18308,-1.01
18322,1.67
18335,-0.00
18349,-1.31
18362,0.20
18375,0.15
18389,-0.43
18402,1.89
18415,-0.06
18429,-2.30
18442,0.70
18455,0.41
18469,-0.21
18482,0.74
18495,-0.24
18508,-1.13
18522,1.56
18535,0.11
18549,-1.94
18562,0.91
18575,0.55
18588,-0.98
18602,1.31
18615,0.10
18629,-1.67
18642,1.16
18655,-0.34
18669,-0.63
18682,1.60
18695,-0.27
18709,-2.02
18722,1.13
18735,1.52
18748,-1.78
18762,0.50
18775,0.38
18789,-1.01
18802,0.96
18815,0.55
18829,-2.26
18842,0.98
18855,1.17
18869,-0.72
18882,0.64
18895,0.05
18909,-2.50
18922,1.07
18935,1.24
18948,0.09
18962,0.16
18975,-1.02
18988,-1.34
19002,1.99
19015,0.64
19028,-1.77
19042,0.55
19055,0.90
19069,-1.79
19082,0.81
19095,1.42
19109,-1.67
19122,0.32
19135,0.86
19148,-1.58
19162,0.11
19175,1.98
19189,-1.26
19202,-0.04
19215,0.43
19229,-1.59
19242,1.20
19255,1.46
19268,-1.93
19282,0.15
19295,0.93
19309,-1.40
19322,0.18
19335,1.92
19349,-1.36
19362,-0.09
19375,0.45
19389,-1.55
19402,1.23
19415,1.31
19429,-1.29
19442,-0.38
19455,-0.10
19469,-0.33
19482,1.80
19495,0.52
19509,-2.95
19522,0.49
19535,1.28
19548,-0.13
19562,0.27
19575,0.67
19589,-2.33
19602,0.37
19615,0.65
19629,0.49
19642,0.05
19655,0.63
19669,-1.75
19682,-0.21
19695,1.73
19709,-1.15
19722,0.33
19735,0.70
19748,-1.63
19762,0.97
19775,1.29
19788,-1.77
19802,-0.39
19815,1.70
19828,-1.01
19842,-0.41
19855,1.30
19868,-1.04
19882,-0.10
19895,1.46
19909,-1.26
19922,-0.42
19935,1.67
19949,-2.22
19962,0.53
19975,3.05
19988,-2.52
20002,-1.36
20015,1.52
20029,-0.29
20042,0.39
20055,1.39
20068,-1.66
20082,-0.78
20095,1.11
20109,-0.28
20122,-0.61
20135,1.24
20149,-0.58
20162,1.11
20175,-2.32
20188,0.42
20202,2.46
20215,2.92
20229,-8.79
20242,-1.55
20255,4.99
20269,7.01
20282,-0.15
20295,-6.28
20309,-6.61
20322,-0.17
20335,13.25
20349,-3.53
20362,-3.80
20375,-0.86
20388,4.66
20402,0.68
20415,-4.49
20429,-5.23
20442,2.61
20455,7.44
20469,0.62
20482,-2.16
20495,-2.04
20508,-4.05
20522,0.93
20535,4.02
20548,0.11
20562,-0.63
20575,0.47
20588,-0.91
20602,-1.04
20615,1.61
20629,-3.04
20642,2.44
20655,3.61
20669,-3.45
20682,-3.44
20695,1.71
20708,2.20
20722,0.45
20735,1.72
20749,-1.88
20762,-4.80
20775,4.06
20788,-1.28
20802,-0.67
20815,3.86
20828,0.25
20842,-0.93
20855,-1.52
20868,-3.35
20882,0.51
20895,4.29
20909,0.13
20922,0.09
20935,0.09
20948,-3.07
20962,-1.02
20975,1.51
20988,3.46
21002,-3.02
21015,-1.01
21028,1.11
21042,3.53
21055,-3.02
21068,0.11
21082,-2.86
21095,-0.46
21109,1.75
21122,6.78
21135,0.43
21149,-8.05
21162,-5.02
21175,5.04
21188,3.37
21202,2.23
21215,0.53
21229,-4.58
21242,-4.15
21255,5.41
21269,-1.45
21282,-0.77
21295,4.31
21309,-0.33
21322,-3.60
21335,1.42
21348,-3.06
21362,-0.53
21375,5.84
21388,2.25
21402,-3.66
21415,-3.64
21429,-0.57
21442,-0.34
21455,7.13
21469,-0.38
21482,-3.60
21495,0.51
21509,-1.68
21522,-2.26
21535,6.24
21548,-2.70
21562,0.03
21575,3.70
21588,-5.31
21602,-0.36
21615,2.79
21629,-1.45
21642,2.14
21655,1.03
21669,-3.43
21682,-3.19
21695,3.50
21709,3.63
21722,-0.75
21735,-1.03
21748,-2.14
21762,-1.98
21775,2.29
21788,1.71
21802,-0.79
21815,0.88
21828,-0.33
21842,-1.85
21855,1.01
21868,0.05
21882,0.80
21895,-4.08
21909,5.71
21922,0.18
21935,-4.41
21948,-1.40
21962,2.77
21975,4.67
21988,-1.97
22002,-4.58
22015,0.01
22029,1.50
22042,0.55
22055,2.17
22068,-0.09
22082,-2.50
22095,0.26
22108,0.09
22122,-1.02
22135,1.52
22149,1.24
22162,-2.07
22175,1.20
22188,-1.64
22202,0.47
22215,3.83
22228,-1.62
22242,-6.70
22255,4.72
22268,3.14
22282,-3.83
22295,-3.06
22308,8.74
22322,3.84
22335,-12.82
22348,-1.41
22362,0.49
22375,9.21
22388,1.35
22402,-3.85
22415,-6.10
22428,6.23
22442,0.59
22455,-0.86
22468,-3.22
22482,-6.53
22495,11.75
22508,2.00
22522,-6.52
22535,4.46
22548,-2.75
22562,-5.67
22575,4.00
22588,4.55
22602,-4.59
22615,1.00
22629,1.85
22642,-2.36
22655,0.01
22668,1.77
22682,-0.80
22695,-0.55
22709,3.20
22722,-3.88
22735,-5.55
22749,6.77
22762,6.54
22775,-5.71
22788,-4.27
22802,1.56
22815,3.79
22829,-0.25
22842,-5.20
22855,4.43
22868,-1.97
22882,-2.13
22895,4.40
22908,4.42
22922,-1.95
22935,-10.35
22949,2.17
22962,4.73
22975,0.36
22988,3.12
23002,-3.28
23015,-0.98
23029,-1.32
23042,-0.19
23055,3.63
23068,1.01
23082,-5.11
23095,0.42
23108,3.57
23122,-3.38
23135,5.83
23149,-3.93
23162,-4.48
23175,4.03
23188,3.92
23202,-2.14
23215,-2.63
23229,-0.94
23242,-0.34
23255,2.59
23269,3.94
23282,-2.65
23295,-2.85
23308,0.44
23322,0.20
23335,0.66
23348,0.59
23362,-1.30
23375,1.43
23388,1.22
23402,-2.31
23415,-0.80
23428,1.76
23442,-0.67
23455,-0.18
23468,1.27
23482,-1.20
23495,-0.19
23508,1.48
23522,-1.19
23535,-0.22
23548,0.71
23562,-0.44
23575,0.17
23588,0.90
23602,-1.72
23615,-0.11
23628,2.02
23642,-0.84
23655,-0.54
23669,0.96
23682,-1.33
23695,-0.12
23708,1.67
23722,-1.00
23735,-0.30
23748,1.30
23762,-1.22
23775,-0.14
23788,0.79
23802,-0.44
23815,0.13
23828,0.86
23842,-1.73
23855,-0.26
23869,2.68
23882,-1.51
23895,-0.91
23908,1.52
23922,-0.74
23935,-0.29
23948,1.04
23962,-1.32
23975,-0.05
23988,1.75
24002,-1.03
24015,-0.44
24028,1.17
24042,-1.25
24055,-0.22
24068,1.37
24082,-0.42
24095,-0.93
24108,1.00
24122,-0.62
24135,0.29
24148,1.23
24162,-1.77
24175,-0.58
24188,1.52
24202,0.11
24215,-1.39
24228,1.40
24242,0.18
24255,-1.05
24268,0.46
24282,-1.58
24295,1.38
24308,2.21
24322,-2.15
24335,-1.46
24348,1.48
24362,-0.18
24375,0.36
24388,1.02
24402,-1.12
24415,-1.29
24428,1.00
24442,0.39
24455,-0.15
24468,0.85
24482,-1.33
24495,-0.10
24508,1.30
24522,-0.66
24535,-1.04
24548,1.01
24562,0.27
24575,-0.30
24588,0.74
24602,-1.37
24615,-0.06
24628,1.39
24642,-0.59
24655,-1.02
24668,0.98
24682,0.23
24695,-0.33
24708,0.58
24722,-0.72
24735,-0.72
24748,1.02
24762,-0.03
24775,0.19
24788,-1.77
24802,2.45
24815,0.38
24828,-1.37
24842,-1.56
24855,-0.01
24868,2.24
24882,0.56
24895,-1.09
24908,1.59
24922,-3.64
24935,0.07
24948,2.46
24962,0.78
24975,-0.33
24988,-3.26
25002,1.33
25015,1.59
25028,1.35
25042,-1.87
25055,-2.87
25068,2.56
25082,0.88
25095,-0.70
25108,0.36
25122,-0.45
25135,-0.54
25148,0.78
25162,-0.38
25175,-0.49
25188,1.21
25202,-0.48
25215,-1.21
25229,2.58
25242,-0.54
25255,-2.73
25268,1.00
25282,1.79
25295,-1.08
25308,0.97
25322,-1.18
25335,-0.71
25348,1.24
25362,-0.09
25375,0.28
25388,0.97
25402,-1.68
25415,-2.94
25429,2.51
25442,3.32
25455,-1.09
25468,-1.19
25482,-1.87
25495,0.26
25508,1.48
25522,-0.58
25535,1.34
25548,0.89
25562,-3.05
25575,-0.62
25588,2.94
25602,0.10
25615,-2.53
25628,0.06
25642,2.69
25655,-1.52
25668,0.67
25682,-0.21
25695,-1.27
25708,-0.77
25722,2.65
25735,0.75
25748,-2.67
25762,-0.27
25775,1.84
25788,0.91
25801,-2.17
25815,-1.31
25828,2.09
25842,1.11
25855,-0.77
25868,0.02
25881,-0.72
25895,-1.53
25908,0.39
25921,2.88
25935,-0.32
25948,-0.92
25962,0.07
25975,-2.00
25988,0.94
26002,0.69
26015,0.99
26028,-1.26
26042,2.16
26055,-3.16
26068,-1.06
26082,4.17
26095,0.05
26108,-3.09
26122,-0.20
26135,-0.05
26148,4.24
26162,-0.95
26175,-2.42
26188,-3.00
26202,2.75
26215,3.80
26228,-0.56
26242,-3.63
26255,-2.09
26268,4.13
26282,1.02
26295,-1.83
26308,-0.77
26321,1.13
26335,-1.21
26348,0.80
26362,1.14
26375,-1.51
26388,-0.23
26402,2.28
26415,-2.06
26428,-1.07
26442,1.76
26455,0.46
26468,-0.73
26482,0.46
26495,-1.14
26508,0.30
26522,1.59
26535,-1.04
26548,-2.53
26562,3.52
26575,-0.45
26588,1.47
26602,-3.80
26615,-2.72
26628,4.27
26642,5.30
26655,-2.69
26668,-4.68
26682,-0.71
26695,0.57
26708,2.87
26721,1.95
26735,-0.98
26748,-0.88
26762,-1.78
26775,-1.81
26788,2.21
26802,3.53
26815,-1.18
26828,-3.80
26842,1.01
26855,2.64
26868,-0.68
26882,-1.51
26895,-0.99
26908,1.21
26922,2.73
26935,-1.24
26948,-1.57
26962,0.23
26975,-1.21
26988,0.61
27002,2.34
27015,-0.85
27028,-0.63
27042,0.85
27055,-1.17
27068,-1.41
27082,2.32
27095,0.51
27108,-0.74
27122,-0.81
27135,-1.25
27148,1.50
27162,3.12
27175,-2.12
27188,-2.39
27202,0.80
27215,1.02
27228,-2.31
27242,3.67
27255,2.49
27268,-3.24
27281,-5.75
27295,1.62
27308,5.34
27322,2.43
27335,-3.60
27348,-4.36
27362,3.05
27375,2.17
27388,-1.64
27401,-0.76
27415,-0.43
27428,0.78
27442,-0.04
27455,2.53
27468,1.15
27482,-4.78
27495,-1.18
27508,0.00
27522,3.24
27535,2.14
27548,-1.40
27562,-1.73
27575,-0.29
27588,-0.07
27602,1.82
27615,-1.57
27628,-1.35
27642,0.21
27655,5.34
27668,-0.16
27681,-5.84
27695,-2.07
27708,5.56
27722,1.96
27735,-2.92
27748,-4.45
27762,3.87
27775,2.29
27789,4.69
27802,-8.90
27815,-5.19
27828,5.43
27842,7.84
27855,-0.71
27868,-6.92
27882,-2.01
27895,2.12
27908,0.63
27922,4.74
27935,-2.18
27948,-2.14
27962,1.19
27975,-0.83
27988,-4.67
28002,7.75
28015,-1.16
28028,-3.86
28042,3.26
28055,2.35
28068,-6.31
28081,2.68
28095,1.38
28108,-2.49
28122,-0.64
28135,1.65
28148,2.47
28162,1.27
28175,-2.64
28188,-3.84
28202,1.10
28215,1.83
28228,0.04
28242,1.59
28255,-0.25
28268,-1.37
28281,0.02
28295,-0.30
28308,-0.82
28321,1.90
28335,0.14
28348,-1.25
28362,0.19
28375,-0.05
28388,0.16
28401,1.17
28415,-0.63
28428,-1.11
28442,0.61
28455,0.03
28468,-0.89
28481,1.71
28495,0.08
28508,-1.23
28522,0.16
28535,-0.01
28548,-0.58
28562,1.86
28575,0.01
28588,-2.19
28602,0.76
28615,0.57
28628,-0.88
28642,1.38
28655,0.12
28668,-1.70
28681,0.98
28695,0.14
28708,-0.66
28721,0.56
28735,-0.08
28748,-0.87
28762,1.70
28775,-0.08
28788,-1.40
28802,0.15
28815,0.15
28828,-0.40
28841,1.92
28855,-0.05
28868,-2.29
28882,0.54
28895,1.20
28908,-1.53
28922,1.03
28935,0.70
28948,-1.10
28962,0.80
28975,-0.34
28988,-1.62
29002,1.48
29015,0.74
29028,-1.24
29042,0.81
29055,0.64
29068,-2.23
29082,0.80
29095,0.94
29108,-0.74
29122,0.83
29135,0.27
29148,-2.43
29162,0.84
29175,1.91
29188,-1.15
29202,-0.36
29215,2.35
29228,-6.38
29241,6.33
29255,2.25
29268,-8.88
29281,3.23
29295,3.71
29308,-2.14
29322,-0.45
29335,0.55
29348,-0.22
29362,0.22
29375,0.44
29388,-2.21
29402,-0.04
29415,2.62
29428,-0.42
29442,0.34
29455,-0.74
29468,-1.49
29482,0.77
29495,1.14
29508,-0.87
29522,-0.20
29535,1.12
29548,-1.42
29562,0.65
29575,0.91
29588,-0.91
29602,-0.74
29615,1.31
29628,-0.61
29642,-0.56
29655,1.35
29668,-1.02
29681,0.28
29695,0.97
29708,-1.89
29722,-0.14
29735,2.27
29748,-0.64
29761,-0.50
29775,-0.00
29788,-0.83
29802,0.38
29815,1.22
29828,-0.78
29841,-0.82
29855,1.41
29868,-0.48
29881,0.15
29895,0.50
29908,-2.49
29921,1.36
29935,3.08
29948,-5.66
29962,1.14
29975,7.16
29988,-7.25
30002,1.20
30015,3.11
30028,-4.26
30042,-4.23
30055,9.45
30068,3.43
30081,-7.59
30095,-2.95
30108,1.18
30121,2.53
30135,3.55
30148,-5.94
30162,3.66
30175,3.23
30188,-5.59
30202,-4.50
30215,3.68
30228,3.86
30242,1.12
30255,-0.43
30268,-3.55
30281,-1.31
30295,0.84
30308,1.19
30321,0.48
30335,1.01
30348,-1.30
30362,-0.08
30375,1.13
30388,-1.07
30402,-1.41
30415,0.97
30428,0.56
30442,0.07
30455,0.93
30468,-1.42
30482,-0.24
30495,1.38
30508,-1.31
30522,-0.33
30535,1.42
30548,-0.27
30562,-0.87
30575,0.77
30588,-0.09
30601,-0.42
30615,0.90
30628,-0.37
30642,-3.18
30655,5.48
30668,-1.25
30681,-3.72
30695,3.32
30708,0.39
30725,-3.53
30735,0.76
30748,2.54
30761,0.53
30775,0.59
30788,-2.91
30801,-1.60
30815,1.38
30828,0.81
30841,0.36
30855,1.22
30868,-0.40
30881,-1.88
30895,0.89
30908,-0.12
30922,-0.86
30935,0.71
30948,0.19
30962,-0.05
30975,1.66
30988,-1.40
31001,-1.49
31015,1.20
31028,0.63
31042,-1.08
31055,1.07
31068,0.54
31081,-4.02
31095,3.36
31108,3.55
31121,-6.35
31135,1.48
31148,1.89
31161,-1.01
31175,-0.55
31188,0.17
31201,0.34
31215,2.12
31228,-0.97
31242,-2.51
31255,0.11
31268,0.23
31282,1.09
31295,2.55
31308,-2.31
31321,2.61
31335,-6.10
31348,-1.54
31362,5.01
31375,6.18
31388,-3.49
31401,-4.73
31415,-2.44
31428,-0.17
31442,6.76
31455,1.85
31468,-1.24
31481,-3.51
31495,-1.87
31508,-0.34
31521,1.96
31535,2.36
31548,1.51
31562,-2.88
31576,-0.89
31588,-0.82
31601,2.45
31615,-1.84
31628,0.28
31641,1.17
31655,2.31
31668,-2.94
31681,-2.09
31695,2.00
31708,0.81
31721,-1.35
31735,1.33
31748,0.87
31762,-2.16
31775,-0.61
31788,3.23
31802,-1.03
31815,-1.87
31828,-1.31
31842,0.67
31855,4.44
31868,-1.28
31881,1.71
31895,-6.24
31908,-0.45
31921,2.90
31935,3.53
31948,-1.21
31962,-2.96
31975,-1.77
31988,5.03
32002,-0.42
32015,-1.36
32028,-1.33
32042,-1.68
32055,2.67
32068,2.75
32081,-2.00
32095,-0.58
32108,-0.44
32121,-3.33
32135,4.83
32148,3.21
32162,-5.01
32175,-3.47
32188,2.25
32202,5.68
32215,-1.66
32228,-3.14
32241,-1.54
32255,3.08
32268,2.41
32281,-6.48
32295,2.44
32308,3.08
32321,-0.46
32335,-2.17
32348,-0.84
32361,-0.02
32375,2.50
32388,0.91
32401,2.07
32415,-7.52
32428,-3.12
32441,6.18
32455,7.00
32468,-2.53
32482,-4.15
32495,-7.15
32508,4.76
32521,5.06
32535,1.75
32548,-3.33
32561,-3.89
32575,1.72
32588,1.64
32601,0.67
32615,-1.54
32628,0.68
32642,-2.39
32655,3.27
32668,0.83
32681,-0.50
32695,-3.68
32708,-2.00
32722,5.69
32735,1.87
32748,-1.92
32762,-4.07
32775,1.41
32788,3.28
32802,-2.18
32815,-0.43
32828,-0.76
32841,1.32
32855,-0.31
32868,3.02
32881,0.24
32895,-6.47
32908,0.85
32921,2.42
32935,1.76
32948,1.18
32962,-3.52
32975,-0.96
32988,1.31
33001,3.19
33015,-2.73
33028,-2.89
33042,3.83
33055,-1.52
33068,1.96
33082,-0.18
33095,-1.85
33108,-0.33
33121,2.67
33135,-4.80
33148,2.28
33161,3.02
33175,0.96
33188,-3.70
33201,-0.22
33215,-1.57
33228,-0.13
33241,3.71
33255,2.56
33268,-2.51
33281,-2.16
33295,-0.77
33308,-1.30
33322,4.85
33335,-2.34
33348,2.15
33362,-0.98
33375,1.76
33388,-5.47
33402,-1.19
33415,2.66
33428,7.67
33441,-1.74
33455,-6.34
33468,-3.97
33481,4.04
33495,4.35
33508,0.18
33521,-1.83
33535,-0.97
33548,0.17
33562,-2.69
33575,1.11
33588,3.76
33601,-2.14
33615,1.06
33628,-1.03
33642,-0.12
33655,-1.12
33668,0.87
33682,-0.78
33695,1.99
33708,1.08
33721,-1.56
33735,-2.17
33748,0.88
33761,-1.62
33775,7.27
33788,-2.94
33801,-7.84
33815,4.50
33828,7.45
33842,-4.19
33855,-2.38
33868,-4.77
33881,0.95
33895,9.47
33908,-2.22
33921,4.25
33935,-13.26
33948,-2.86
33962,8.52
33975,8.80
33988,-0.28
34002,-11.80
34015,-4.98
34028,6.64
34041,4.03
34055,2.45
34068,-1.25
34082,-3.32
34095,-3.28
34108,3.53
34121,1.73
34135,-6.60
34148,2.69
34162,7.72
34175,-1.42
34188,-3.89
34201,-5.18
34215,0.12
34228,8.34
34241,-0.70
34255,-1.94
34268,-0.96
34281,-3.40
34295,1.20
34308,5.48
34321,-1.39
34335,-0.17
34348,-5.24
34361,5.71
34375,-5.18
34388,0.97
34401,0.84
34415,7.90
34428,0.54
34442,-11.25
34455,-5.84
34468,6.76
34481,7.44
34495,2.01
34508,-4.90
34521,-2.04
34535,-1.56
34548,-2.13
34561,4.95
34575,0.46
34588,0.49
34601,-0.77
34615,-0.86
34628,0.93
34641,-2.67
34655,-0.45
34668,2.84
34681,1.02
34695,-1.12
34708,0.64
34721,-2.91
34735,0.69
34748,1.48
34761,1.90
34775,-3.03
34788,-1.21
34801,0.65
34815,2.26
34828,2.80
34841,-3.05
34855,-4.91
34868,2.80
34881,6.22
34895,-6.49
34908,-2.31
34922,3.32
34935,5.59
34948,0.15
34961,-9.30
34975,-0.69
34988,5.98
35001,0.72
35015,-2.55
35028,0.71
35041,1.67
35055,-1.68
35068,0.28
35082,-0.83
35095,-0.55
35108,1.93
35121,-1.90
35135,3.48
35148,-3.74
35161,-0.20
35175,1.13
35188,3.69
35201,-1.77
35215,-1.14
35228,-3.22
35241,-0.31
35255,1.88
35268,4.66
35281,0.87
35295,-3.53
35308,-3.85
35321,-1.29
35335,7.70
35348,-2.16
35361,-1.31
35375,-2.90
35388,5.90
35401,-0.62
35415,-3.48
35428,-0.31
35441,1.72
35455,-0.85
35468,1.79
35481,-0.69
35495,-0.10
35508,-2.32
35521,6.07
35535,-4.72
35549,-3.06
35561,2.95
35574,2.76
35588,2.72
35601,-5.74
35615,-2.60
35628,2.55
35641,1.74
35655,2.13
35668,-1.89
35681,-5.08
35695,4.19
35708,3.85
35721,1.43
35735,-10.28
35748,-2.73
35762,7.81
35775,6.50
35788,-1.54
35801,-7.78
35815,1.89
35828,-0.29
35842,-5.06
35855,7.29
35868,4.86
35881,1.35
35895,-12.61
35908,-3.45
35921,8.15
35935,9.36
35948,-5.00
35961,-7.34
35975,-1.42
35988,3.42
36001,4.72
36015,1.21
36028,-5.27
36041,-0.02
36055,-1.67
36068,0.92
36081,4.08
36095,1.40
36108,-3.43
36121,-1.74
36135,-2.50
36148,4.06
36161,-0.92
36175,2.62
36188,3.60
36201,-4.30
36215,-6.68
36228,-1.19
36241,14.94
36255,-6.91
36268,-7.13
36281,7.33
36295,2.84
36308,-1.94
36321,-7.23
36335,1.55
36348,4.81
36361,0.68
36375,-2.98
36388,0.02
36401,1.37
36415,3.56
36428,-5.65
36442,-3.64
36455,5.35
36468,3.99
36481,-2.29
36495,-5.93
36508,0.39
36521,5.62
36535,1.94
36548,-2.60
36561,-2.19
36575,-1.61
36588,-0.97
36601,6.39
36614,-0.92
36628,-3.00
36641,-0.34
36655,1.08
36668,1.63
36681,0.48
36694,-3.20
36708,-0.91
36721,2.33
36735,0.77
36748,-0.82
36761,1.10
36775,-1.88
36788,0.08
36801,0.54
36815,1.03
36828,-0.60
36841,-0.49
36855,-1.67
36868,1.10
36881,2.80
36895,-1.20
36908,-1.38
36921,0.54
36935,-0.95
36948,-0.32
36962,2.42
36975,0.27
36988,-2.07
37002,-2.91
37015,7.04
37028,-0.91
37041,-5.04
37054,-1.20
37068,3.83
37081,3.78
37095,-4.59
37108,-0.47
37121,6.70
37135,-10.84
37148,-2.82
37161,10.71
37175,6.67
37188,-5.20
37201,-8.38
37215,-3.27
37228,3.55
37241,7.77
37254,2.11
37268,-4.42
37281,-2.60
37295,-1.07
37308,-0.36
37321,2.79
37334,1.00
37348,-0.49
37361,-1.26
37374,0.71
37388,0.38
37401,-0.08
37414,-1.56
37428,-0.43
37441,2.04
37454,0.48
37468,-0.88
37481,0.05
37495,-0.55
37508,-1.00
37521,1.96
37535,0.47
37548,-1.83
37561,0.75
37575,0.29
37588,-1.15
37601,1.31
37615,0.22
37628,-1.71
37641,1.71
37655,-0.54
37668,-1.08
37681,1.07
37695,0.33
37708,-0.40
37721,0.40
37735,-0.61
37748,-1.07
37761,1.22
37775,1.07
37788,-0.71
37801,-0.47
37815,-0.72
37828,-0.46
37841,2.52
37854,0.38
37868,-2.42
37881,0.30
37895,0.21
37908,-0.10
37921,0.96
37935,-0.12
37948,-1.17
37961,1.46
37974,0.04
37988,-1.95
38001,0.94
38015,0.58
38028,-0.96
38041,1.31
38055,0.10
38068,-1.68
38081,0.54
38095,2.24
38108,-3.17
38121,-0.56
38135,2.64
38148,1.02
38161,-1.41
38175,-0.22
38188,-2.10
38201,1.04
38215,1.32
38228,-0.16
38241,1.33
38255,-0.69
38268,-2.49
38281,0.86
38295,0.80
38308,-0.72
38321,1.30
38335,0.78
38348,-2.40
38361,0.54
38374,0.63
38388,-0.11
38401,0.23
38415,-0.04
38428,-1.83
38441,2.06
38455,-0.84
38468,1.06
38481,-0.12
38495,1.25
38508,-4.44
38521,-0.27
38535,3.70
38548,0.98
38561,0.47
38575,-1.86
38588,-3.08
38601,0.12
38615,4.05
38629,-0.46
38641,-0.38
38655,-0.70
38668,-2.05
38681,1.88
38695,2.30
38708,-1.92
38721,-0.59
38735,0.14
38748,-0.89
38761,0.68
38775,1.36
38788,-1.07
38801,0.84
38815,0.57
38828,-2.52
38841,0.29
38855,1.51
38868,-1.12
38881,0.85
38895,0.99
38908,-1.98
38921,0.40
38935,1.12
38948,-1.61
38961,0.65
38975,1.15
38988,-1.71
39001,0.57
39015,1.11
39028,-1.55
39041,-0.06
39055,1.79
39068,-1.17
39081,-0.32
39095,-0.70
39108,2.94
39121,-1.93
39135,-0.64
39148,-1.82
39161,3.91
39175,0.51
39188,0.15
39201,-2.55
39215,-2.40
39228,-1.01
39241,4.00
39255,4.92
39268,-1.89
39281,-3.89
39294,-1.29
39308,-0.94
39321,1.82
39335,3.24
39348,-0.75
39361,-1.01
39375,0.48
39388,-1.63
39401,-0.26
39415,1.52
39428,-0.24
39441,-0.80
39455,1.06
39468,-0.62
39481,0.26
39495,1.03
39508,-1.16
39521,-1.28
39535,1.28
39548,0.33
39561,-1.56
39575,4.25
39588,-3.47
39601,-0.73
39615,1.63
39628,-1.17
39641,-0.07
39654,2.10
39668,-0.62
39681,-0.58
39695,0.54
39708,-1.74
39721,-0.13
39735,2.03
39748,-0.63
39761,-0.19
39775,1.15
39788,-1.45
39801,-0.43
39815,1.43
39828,-1.04
39841,-0.17
39855,1.46
39868,-1.13
39881,-0.29
39895,1.39
39908,-1.16
39921,-0.29
39935,1.40
39948,-1.14
39961,-0.26
39975,1.27
39988,-0.33
40001,-1.58
40015,1.55
40028,0.44
40041,-0.92
40055,0.26
40068,-0.89
40081,0.14
40095,1.84
40108,-0.36
40121,-1.51
40135,0.22
40148,-0.16
40161,0.66
40174,1.07
40188,-1.04
40201,-1.01
40215,1.15
40228,0.14
40241,-0.59
40255,0.48
40268,-0.52
40281,-0.43
40295,1.30
40308,-0.77
40321,0.05
40335,1.06
40348,-0.82
40361,-1.81
40375,1.75
40388,0.78
40401,-0.76
40415,0.02
40428,-0.42
40441,-0.79
40455,1.97
40468,0.08
40481,-1.43
40495,0.04
40508,-0.07
40521,0.25
40535,1.28
40548,-0.40
40561,-1.73
40574,1.27
40588,0.22
40601,-0.84
40615,0.42
40628,-0.13
40641,-0.04
40655,1.08
40668,-0.57
40681,-0.99
40695,0.69
40708,0.03
40721,-0.94
40735,1.66
40748,0.05
40761,-1.23
40774,0.18
40788,-0.14
40801,0.09
40815,1.19
40828,-0.53
40841,-1.00
40855,1.12
40868,-1.77
40881,0.43
40895,3.47
40908,-1.08
40921,-4.19
40935,0.79
40948,2.30
40961,1.10
40975,0.15
40988,-1.80
41001,-2.04
41014,1.90
41028,1.05
41041,-1.30
41055,0.91
41068,0.17
41081,-1.33
41095,1.79
41108,-2.42
41121,1.14
41135,3.24
41148,-4.14
41161,-2.23
41174,5.07
41188,0.02
41201,-2.31
41214,0.35
41228,0.19
41241,-0.69
41255,1.04
41268,0.93
41281,-1.51
41295,0.16
41308,-0.32
41321,-0.89
41335,1.96
41348,1.17
41361,-1.85
41375,-0.74
41388,0.77
41401,-0.79
41415,1.52
41428,0.26
41441,-1.74
41455,0.65
41468,0.89
41481,-1.81
41495,0.90
41508,1.53
41521,-1.68
41535,0.20
41548,0.74
41561,-1.75
41575,0.82
41588,1.40
41601,-1.60
41614,0.50
41628,0.83
41644,-1.15
41654,0.04
41668,0.13
41681,-0.43
41694,1.73
41708,-0.24
41721,-2.24
41734,0.81
41748,1.44
41761,-1.53
41774,0.68
41788,1.15
41801,-1.68
41815,-0.30
41828,1.64
41841,-1.27
41855,0.37
41868,0.06
41881,-0.82
41895,1.50
41908,0.77
41921,-2.45
41935,-0.34
41948,2.27
41961,-0.82
41975,0.20
41988,-0.42
42001,-1.08
42014,1.62
42028,1.04
42041,-2.44
42055,0.29
42068,1.48
42081,-1.14
42095,0.39
42108,-0.43
42121,0.50
42134,1.68
42148,-2.89
42162,-1.00
42175,2.20
42188,2.23
42201,-2.46
42215,-0.69
42228,0.90
42241,-0.98
42254,1.15
42268,1.00
42281,-2.01
42294,-0.29
42308,1.96
42321,-0.88
42334,-0.50
42348,1.12
42361,-1.15
42374,-0.09
42388,1.37
42401,-0.54
42414,-1.06
42428,0.98
42441,-0.70
42454,1.03
42468,0.59
42481,-2.16
42495,-0.06
42508,2.23
42521,-0.87
42535,-0.70
42548,0.96
42561,-1.13
42575,0.20
42588,0.99
42601,-0.51
42615,0.70
42628,-2.18
42641,0.37
42654,3.23
42668,0.07
42681,-4.86
42695,-0.85
42708,4.42
42721,1.47
42735,-0.78
42748,-1.09
42761,-2.85
42775,0.06
42788,2.88
42801,-0.04
42815,-0.19
42828,0.82
42841,-1.73
42855,-0.51
42868,1.33
42881,-0.30
42895,-0.79
42908,1.10
42921,-0.58
42935,0.28
42948,1.04
42961,-1.15
42975,-1.28
42988,1.13
43001,0.51
43015,-0.16
43028,0.72
43041,-1.45
43055,-0.12
43068,1.53
43081,-1.22
43095,-0.32
43108,1.53
43121,-0.67
43135,-1.07
43148,0.70
43161,1.49
43175,-0.29
43188,-1.53
43201,-1.82
43215,0.88
43228,3.54
43241,0.12
43254,-2.51
43268,0.05
43281,0.03
43294,-1.03
43308,0.45
43321,0.61
43335,0.95
43348,1.33
43362,-1.30
43375,-1.98
43388,0.29
43401,0.23
43414,0.80
43428,-1.49
43441,5.54
43455,-3.06
43468,-6.17
43481,2.61
43494,7.45
43508,0.14
43521,-7.64
43535,-3.60
43548,2.78
43561,7.60
43575,0.52
43588,-2.62
43601,-4.59
43615,-2.55
43628,3.83
43641,3.22
43655,0.03
43668,-0.90
43681,-1.95
43695,-0.84
43708,1.50
43721,0.31
43735,-0.42
43748,0.72
43761,-0.41
43774,-0.59
43788,0.86
43801,-0.14
43815,-1.22
43828,1.52
43841,0.10
43855,-0.95
43868,0.09
43881,-1.36
43895,2.48
43908,1.75
43921,-2.66
43934,-3.25
43948,2.47
43962,2.43
43975,-0.17
43988,-0.81
44001,-1.53
44014,-0.95
44028,1.81
44041,1.54
44054,-0.98
44067,-2.23
44081,3.52
44094,-4.05
44107,3.53
44121,0.06
44134,-2.67
44148,-1.34
44161,4.98
44175,-0.62
44188,-1.81
44201,-1.72
44215,0.41
44228,2.47
44241,0.19
44255,-1.27
44268,0.01
44281,-0.35
44294,-0.88
44308,1.90
44321,0.37
44334,-1.84
44348,0.97
44361,0.47
44374,-3.07
44388,2.45
44401,4.07
44414,-2.16
44428,-7.17
44441,1.77
44455,5.19
44468,2.08
44481,-1.53
44494,-3.42
44508,-1.08
44521,0.45
44534,0.92
44548,3.04
44562,0.08
44574,-2.81
44588,-0.83
44601,1.64
44614,-0.93
44628,0.81
44641,0.13
44655,-0.31
44668,0.64
44681,-0.49
44695,-1.33
44708,1.65
44721,0.41
44734,-0.94
44748,-2.32
44761,4.05
44774,0.40
44788,-4.04
44801,2.04
44814,0.44
44828,-0.49
44841,-0.81
44855,-0.18
44868,1.50
44881,2.19
44894,-2.13
44908,-2.00
44921,0.41
44934,0.29
44948,0.06
44961,2.38
44975,-2.99
44988,2.75
45001,3.98
45014,-8.98
45028,-2.54
45041,7.17
45054,2.38
45068,-2.49
45081,-1.15
45094,-0.50
45108,-1.61
45121,1.81
45135,4.86
45148,-2.50
45161,-3.55
45174,-5.43
45188,6.32
45201,6.81
45214,0.21
45228,-9.73
45241,-4.15
45254,8.19
45268,3.41
45281,0.36
45294,-6.03
45308,-1.43
45321,2.61
45335,-2.09
45348,6.06
45361,0.79
45374,-6.06
45388,-1.12
45401,1.57
45414,3.18
45428,2.20
45441,-4.82
45455,-2.76
45468,1.38
45481,4.95
45495,-0.12
45508,-1.13
45521,-3.16
45535,-1.59
45548,2.21
45561,3.18
45574,0.63
45588,-4.26
45601,2.24
45615,-1.39
45628,0.42
45641,-0.09
45654,-0.69
45668,1.84
45681,-0.35
45695,-0.08
45708,0.03
45721,0.67
45735,-2.15
45748,-0.91
45761,1.65
45774,-0.07
45788,2.74
45801,0.63
45814,-3.54
45828,-3.90
45841,3.11
45854,4.78
45868,-0.61
45881,-4.35
45895,-2.40
45908,3.48
45921,3.10
45934,2.13
45948,-6.05
45961,-3.27
45974,2.68
45988,5.75
46001,-2.60
46014,-4.77
46028,3.76
46041,3.67
46055,-3.09
46068,-3.68
46081,0.04
46094,2.29
46108,2.06
46121,2.45
46134,-3.86
46148,-2.86
46161,1.62
46174,0.93
46188,0.45
46201,2.20
46214,-5.36
46228,3.19
46241,2.74
46254,-0.03
46268,-8.76
46281,-2.02
46295,11.57
46308,5.51
46321,-5.91
46334,-7.86
46348,-3.97
46361,5.68
46374,9.19
46388,-2.83
46401,-3.90
46414,-1.44
46428,0.90
46441,0.20
46455,2.53
46468,-3.66
46481,-0.51
46494,3.43
46508,1.57
46521,-1.91
46534,0.21
46548,-5.21
46561,0.96
46574,6.58
46588,-0.87
46601,1.08
46614,-10.69
46627,4.68
46641,4.68
46654,2.00
46668,-2.24
46681,-4.76
46694,-0.94
46708,3.64
46721,2.26
46735,-2.44
46748,0.30
46761,1.55
46774,-1.07
46788,-2.27
46801,-0.25
46814,1.96
46828,0.62
46841,4.73
46855,-8.31
46868,-1.37
46881,5.81
46894,1.72
46908,-2.87
46921,-2.75
46934,3.14
46948,-3.97
46961,8.21
46975,-3.22
46988,-6.13
47001,-0.71
47014,9.02
47028,2.60
47041,-5.29
47055,-6.53
47068,0.21
47081,5.34
47094,3.67
47108,-0.54
47121,-2.83
47134,-2.20
47148,-4.35
47161,7.20
47174,4.17
47188,-5.26
47201,-1.48
47214,0.94
47228,-3.01
47241,2.30
47254,4.19
47267,2.32
47281,-4.74
47294,-4.08
47308,-0.93
47321,2.35
47334,4.62
47348,0.56
47361,1.88
47374,-7.39
47388,-4.49
47401,4.90
47414,8.30
47428,-2.95
47441,-6.34
47454,-0.38
47468,0.92
47481,7.57
47494,-0.96
47508,-7.68
47521,-1.81
47534,5.04
47548,4.31
47561,-1.83
47575,-1.20
47588,-2.64
47601,-1.12
47614,1.04
47628,1.48
47641,2.38
47655,0.46
47668,-2.07
47681,-1.49
47694,-0.96
47708,0.08
47721,2.62
47734,0.86
47748,-1.07
47761,-0.80
47774,0.28
47788,-2.14
47801,3.33
47814,-0.83
47828,-1.81
47841,1.73
47855,1.75
47868,-1.90
47881,-1.78
47895,0.75
47908,-0.35
47921,1.94
47934,1.42
47948,-2.31
47961,-0.07
47974,0.95
47988,-4.72
48001,4.68
48014,3.58
48028,-3.58
48041,-6.08
48054,5.34
48068,0.46
48081,-1.09
48095,6.93
48108,-4.21
48121,-7.93
48134,1.90
48148,4.33
48161,2.14
48174,0.12
48188,-2.51
48201,-0.64
48214,-1.66
48228,1.93
48241,1.35
48254,0.48
48268,-2.92
48281,-1.20
48294,3.31
48308,1.92
48321,-2.19
48334,-1.70
48348,-0.67
48361,1.81
48374,3.38
48388,-3.31
48401,-5.54
48414,8.12
48428,0.59
48441,-5.72
48454,2.51
48468,-0.36
48481,2.75
48495,-2.53
48508,-3.12
48521,2.15
48534,5.22
48548,-4.54
48561,-1.13
48574,4.79
48588,-2.52
48601,-4.58
48614,0.98
48628,2.67
48641,5.38
48654,-1.67
48668,-4.58
48681,-3.01
48695,1.65
48708,5.32
48721,-1.60
48734,0.77
48748,-7.05
48761,3.58
48774,6.36
48788,-1.68
48801,-4.79
48814,-2.45
48828,1.18
48841,4.87
48854,3.60
48868,-4.37
48881,-7.63
48894,2.95
48908,5.92
48921,3.90
48934,-5.10
48948,-4.71
48961,-0.61
48974,4.75
48988,-0.01
49001,-2.72
49014,6.64
49027,-1.39
49041,-7.50
49054,2.95
49068,0.20
49081,3.29
49094,-0.36
49107,-2.88
49121,-2.81
49134,5.88
49148,-1.06
49161,1.50
49175,-1.08
49188,-4.44
49201,-1.86
49214,5.58
49228,2.70
49241,1.35
49254,-4.37
49268,-7.31
49281,4.69
49294,8.03
49308,-5.74
49321,-0.42
49334,0.80
49348,-2.52
49361,0.70
49374,3.57
49388,-0.97
49401,-0.60
49414,0.30
49428,-3.16
49441,0.24
49454,3.15
49468,-0.48
49481,-1.68
49494,3.36
49508,-1.48
49521,-0.13
49534,-2.87
49548,-2.22
49561,4.95
49574,5.85
49588,-6.63
49601,-1.49
49614,1.70
49628,-1.72
49641,-0.29
49654,2.98
49668,1.42
49681,-0.95
49694,-0.86
49708,-2.44
49721,0.03
49734,2.22
49747,0.33
49761,-1.40
49774,1.32
49788,0.91
49801,-1.66
49814,-1.13
49828,0.88
49841,0.32
49855,1.37
49868,-0.90
49881,-2.04
49895,0.63
49907,3.00
49921,-1.38
49935,-1.25
49947,0.60
49961,-2.97
49974,6.16
49988,-1.39
50001,-1.88
50014,-1.56
50028,-3.11
50041,5.64
50055,5.41
50068,-3.76
50081,-8.65
50094,4.06
50108,5.47
50121,-3.56
50134,1.54
50148,-5.43
50161,4.64
50174,4.61
50188,-4.76
50201,-6.18
50214,1.61
50228,10.06
50241,-2.45
50255,-3.55
50268,-1.89
50281,-4.35
50295,10.08
50308,0.21
50321,-7.85
50335,5.27
50348,1.66
50361,-7.42
50374,2.00
50388,4.88
50401,-1.15
50414,1.33
50428,-5.47
50441,1.70
50455,2.69
50468,-1.23
50481,-5.90
50494,5.87
50508,6.11
50521,-5.36
50534,-2.97
50548,-0.54
50561,-0.70
50574,5.22
50588,2.06
50601,-5.57
50614,-1.00
50628,2.95
50641,-1.17
50654,2.04
50668,1.22
50681,-5.16
50695,-0.31
50708,4.69
50721,-0.51
50734,-1.09
50747,-1.26
50761,-0.07
50774,0.35
50787,2.75
50801,-0.74
50814,-1.90
50828,-0.30
50841,-0.98
50854,3.12
50868,0.21
50881,-2.72
50894,0.13
50908,2.09
50921,0.27
50934,-1.09
50948,-0.17
50961,-1.05
50974,0.46
50987,0.27
51001,0.32
51014,1.62
51028,-0.16
51041,-3.07
51054,0.12
51068,2.08
51081,1.26
51094,-3.96
51107,4.85
51121,-3.79
51134,-1.68
51147,4.76
51161,-4.45
51174,6.06
51188,-2.42
51201,-1.30
51214,-1.50
51228,-2.22
51241,4.10
51254,4.59
51267,-5.45
51281,-1.34
51294,3.53
51308,-3.68
51321,2.34
51334,3.66
51347,-5.56
51361,-2.38
51374,4.90
51388,-0.27
51401,1.24
51414,0.13
51428,-2.53
51441,-2.80
51454,1.59
51468,3.99
51481,-0.51
51494,-1.56
51507,-0.05
51521,-1.52
51534,0.32
51547,2.15
51561,-0.83
51574,-0.40
51587,1.12
51601,-1.04
51614,-1.77
51628,3.46
51641,-0.50
51654,-2.70
51668,-0.86
51681,4.64
51695,1.71
51707,-6.01
51721,0.38
51734,-1.57
51748,9.92
51761,-7.29
51774,-4.42
51787,6.03
51801,1.05
51814,2.35
51828,-2.37
51841,-6.91
51855,-0.30
51868,1.24
51881,8.70
51895,6.06
51908,-10.53
51921,-6.00
51934,1.83
51948,6.74
51961,-4.43
51974,-3.52
51988,9.78
52001,3.36
52014,-5.00
52028,-10.41
52041,0.46
52055,9.00
52068,3.00
52081,-5.07
52094,-1.45
52108,-0.94
52121,6.62
52134,1.61
52148,-10.35
52161,-1.68
52174,6.17
52188,1.26
52202,2.88
52214,-1.05
52227,-3.92
52241,-3.86
52254,2.47
52267,5.52
52281,-0.34
52294,-2.80
52307,-1.14
52321,-1.34
52334,1.38
52347,2.99
52361,-0.85
52374,-1.02
52388,0.52
52401,-1.54
52414,-0.15
52427,1.76
52441,-1.00
52454,0.50
52468,0.71
52481,-1.62
52494,0.18
52508,1.93
52521,-1.33
52534,-0.88
52548,0.97
52561,-0.21
52575,-0.47
52588,1.08
52601,-0.08
52614,-0.62
52628,0.71
52641,-1.19
52654,0.10
52668,1.57
52681,-1.29
52694,-0.40
52707,1.50
52721,-0.96
52734,-0.22
52747,1.29
52761,-1.29
52774,-0.32
52788,1.31
52801,-0.41
52814,-0.89
52828,0.88
52841,0.19
52854,-1.19
52867,2.16
52881,-1.51
52894,-0.93
52908,1.32
52921,0.25
52934,-1.25
52947,1.35
52961,0.06
52974,-1.05
52988,0.41
53001,-0.85
53014,0.68
53027,1.58
53041,-1.01
53054,-1.54
53067,0.98
53081,-0.21
53094,0.49
53107,1.89
53121,-2.64
53134,-1.13
53147,2.04
53161,0.61
53174,-0.85
53187,0.29
53201,-1.01
53214,-0.23
53228,2.22
53241,-0.45
53254,-1.88
53267,0.31
53281,0.53
53294,0.47
53307,0.96
53321,-0.85
53334,-1.88
53348,1.62
53361,0.00
53374,-0.69
53387,1.43
53401,-0.28
53414,-1.91
53428,1.32
53441,0.63
53454,-0.58
53467,0.18
53481,-0.49
53494,-0.95
53508,1.92
53521,0.19
53534,-1.29
53547,0.09
53561,-0.13
53574,0.16
53587,1.23
53601,-0.40
53614,-1.70
53628,1.31
53641,0.40
53654,-1.48
53667,1.09
53681,0.39
53694,-1.25
53708,1.32
53721,-0.66
53734,-0.25
53747,0.80
53761,-0.60
53777,-1.35
53787,1.96
53800,0.57
53814,-1.11
53827,-0.14
53841,-0.32
53854,-0.60
53867,2.07
53881,0.21
53894,-2.15
53907,0.66
53921,0.46
53934,-0.94
53948,1.24
53961,0.65
53974,-1.69
53988,-0.21
54001,1.11
54014,-0.84
54028,1.25
54041,0.05
54054,-1.78
54068,0.88
54081,0.33
54094,-1.09
54108,1.44
54121,0.17
54134,-0.96
54148,0.22
54161,-0.38
54174,-0.16
54188,1.19
54201,-0.33
54214,-0.81
54228,0.71
54241,-0.23
54254,-0.42
54267,1.07
54281,-0.81
54294,-0.60
54307,1.86
54321,-0.31
54334,-2.32
54348,1.14
54361,1.06
54374,-0.82
54388,0.99
54401,-0.30
54414,-1.78
54428,1.05
54441,1.21
54454,-1.86
54468,0.78
54481,0.73
54494,-0.93
54508,0.92
54521,-0.35
54534,-1.54
54547,0.62
54561,2.05
54574,-1.51
54588,-0.10
54601,0.62
54614,-1.46
54628,1.09
54641,1.26
54654,-1.99
54667,0.41
54681,0.44
54694,-0.83
54707,1.31
54721,-0.04
54734,-1.55
54747,0.38
54761,1.81
54774,-1.59
54788,-0.02
54801,0.75
54814,-1.39
54828,1.25
54841,0.59
54854,-1.35
54868,0.62
54881,0.52
54894,-2.09
54908,0.96
54921,1.80
54934,-1.47
54947,0.22
54961,0.47
54974,-1.24
54988,0.09
55001,1.03
55014,-1.00
55028,1.13
55041,0.83
55054,-2.42
55068,0.24
55081,1.40
55094,-1.22
55108,0.79
55121,0.83
55134,-1.16
55147,-0.88
55161,1.44
55174,-0.66
55188,0.69
55201,0.38
55214,-2.18
55228,0.86
55241,1.67
55254,-1.51
55268,0.33
55281,0.79
55294,-1.65
55307,0.06
55321,1.96
55334,-1.25
55348,-0.00
55361,0.32
55374,-0.93
55388,0.52
55401,1.06
55414,-1.23
55428,0.08
55441,1.44
55454,-1.80
55468,-0.04
55481,0.92
55494,-0.96
55507,0.64
55521,1.88
55534,-1.70
55548,-1.03
55561,0.44
55574,-0.04
55588,0.73
55601,1.12
55614,-1.90
55628,-0.41
55641,1.85
55654,-0.82
55668,-0.42
55681,1.05
55694,-1.30
55707,-0.13
55721,1.64
55734,-1.02
55747,-0.31
55761,1.30
55774,-1.22
55788,-0.29
55801,1.43
55814,-1.11
55828,-0.25
55841,1.42
55854,-1.14
55868,-0.28
55881,1.40
55894,-1.15
55908,-0.27
55921,1.41
55934,-1.14
55948,-0.27
55961,1.41
55974,-1.14
55987,-0.27
56001,1.41
56014,-1.14
56028,-0.27
56041,1.41
56054,-1.14
56071,-0.27
56080,1.41
56094,-1.14
56107,-0.27
56121,1.41
56134,-1.14
56147,-0.27
56160,1.41
56174,-1.14
56188,-0.27
56201,1.41
56214,-1.14
56228,-0.27
56241,1.41
56254,-1.14
56268,-0.27
56281,1.41
56294,-1.14
56308,-0.27
56321,1.41
56334,-1.14
56348,-0.27
56361,1.26
56374,-0.34
56388,-1.59
56401,1.55
56414,0.44
56428,-0.92
56441,0.27
56454,-1.04
56468,0.63
56481,1.81
56494,-1.58
56508,-0.84
56521,1.17
56534,-0.16
56548,-0.63
56561,1.05
56574,-0.77
56588,0.16
56601,1.06
56614,-1.06
56628,-1.19
56641,1.16
56654,0.66
56668,-0.83
56681,1.21
56694,-0.45
56708,-1.36
56721,0.41
56734,0.17
56747,0.23
56761,1.15
56774,-0.50
56788,-1.74
56801,1.31
56814,0.41
56827,-1.48
56841,1.09
56854,0.39
56867,-1.24
56881,1.17
56894,0.14
56907,-1.56
56921,1.09
56934,0.17
56947,-0.68
56961,0.52
56974,-0.26
56988,-0.24
57001,1.03
57014,-0.30
57028,-1.48
57041,1.42
57054,0.36
57068,-1.58
57081,1.02
57094,0.23
57107,-0.57
57121,0.52
57134,-0.23
57148,-1.01
57161,1.67
57174,0.15
57188,-1.95
57201,0.88
57214,0.53
57227,-0.99
57241,1.30
57254,0.11
57267,-1.67
57280,0.86
57294,0.96
57307,-1.97
57321,0.85
57334,0.69
57347,-0.20
57361,0.26
57374,-0.76
57388,-1.18
57401,1.98
57414,0.55
57427,-1.84
57441,0.68
57454,0.27
57468,-1.09
57481,1.21
57494,0.87
57508,-2.26
57521,0.64
57534,0.84
57548,-0.75
57561,1.03
57574,-0.34
57588,-1.74
57601,1.22
57614,1.19
57627,-1.26
57641,-0.06
57654,0.20
57667,-0.40
57681,1.59
57694,-0.42
57707,-2.27
57721,1.10
57734,0.95
57747,-0.80
57761,1.16
57774,-0.14
57788,-1.80
57801,0.89
57814,1.06
57828,-1.89
57841,0.86
57854,0.83
57867,-0.88
57881,0.76
57894,0.26
57908,-2.41
57921,0.87
57934,1.93
57947,-1.30
57961,0.29
57974,0.59
57987,-1.79
58001,0.08
58014,2.07
58028,-1.17
58041,-0.00
58054,0.27
58067,-0.97
58081,0.51
58094,1.07
58107,-1.37
58121,0.74
58134,0.76
58147,-2.18
58161,0.52
58174,1.51
58187,-1.29
58201,0.66
58214,0.89
58228,-2.13
58241,1.11
58254,0.51
58267,-1.95
58281,1.23
58294,1.73
58307,-1.90
58321,-0.08
58334,0.78
58347,-1.45
58361,1.03
58374,1.32
58387,-1.84
58401,0.48
58414,0.35
58427,-0.99
58440,1.07
58454,0.64
58467,-2.27
58480,0.73
58494,1.71
58507,-1.25
58521,-0.33
58534,1.35
58547,-1.50
58561,0.18
58574,0.79
58588,-1.39
58601,1.17
58614,1.33
58628,-2.04
58641,0.11
58654,0.95
58667,-1.37
58681,0.21
58694,1.94
58708,-1.20
58721,-0.73
58734,1.12
58747,-1.17
58761,0.67
58774,0.88
58787,-1.76
58801,0.92
58814,0.60
58828,-0.98
58841,0.12
58854,1.18
58867,-1.64
58880,-0.30
58894,1.89
58908,-0.73
58921,-0.33
58934,0.87
58947,-0.79
58961,-0.94
58974,1.08
58987,0.09
59001,0.34
59014,0.12
59028,-1.67
59041,0.51
59054,2.07
59067,-1.48
59081,-1.00
59094,1.22
59107,-0.68
59121,0.08
59134,2.13
59147,-2.12
59161,-0.96
59174,1.88
59187,-0.44
59201,-0.29
59214,0.86
59228,-1.46
59241,-0.06
59254,1.82
59267,-1.13
59281,0.22
59294,0.49
59307,-1.64
59321,0.33
59334,2.11
59347,-1.23
59361,-0.88
59374,1.07
59387,-0.92
59401,0.15
59414,1.59
59428,-1.29
59441,-0.52
59454,1.28
59467,-1.10
59481,-0.16
59494,1.49
59507,-1.12
59521,-0.29
59534,1.38
59548,-1.16
59561,-0.28
59574,1.41
59587,-1.13
59601,-0.26
59614,1.42
59628,-1.14
59641,-0.27
59654,2.03
59667,-3.72
59681,2.42
59694,2.77
59707,-2.73
59721,-3.29
59734,1.73
59748,1.93
59761,1.57
59774,0.06
59788,-2.92
59801,-2.18
59814,2.52
59827,0.22
59841,0.66
59854,1.36
59867,-1.07
59881,-2.53
59894,1.14
59907,0.92
59921,-0.91
59934,1.19
59947,-0.07
59961,-0.92
59974,0.42
59987,-0.10
60001,-0.85
60014,1.73
60027,0.11
60041,-2.02
60054,0.84
60067,0.37
60081,-0.32
60094,0.80
60107,-1.06
60121,0.20
60134,1.30
60147,-0.81
60161,-1.96
60174,1.67
60187,0.85
60201,-0.65
60214,0.05
60227,-0.63
60241,-0.22
60254,1.26
60267,-0.29
60281,-0.84
60294,0.66
60307,-0.23
60321,-0.38
60334,0.96
60347,-0.16
60361,-1.29
60374,1.46
60387,0.23
60401,-1.74
60414,0.97
60427,0.44
60441,-1.13
60454,1.25
60467,0.15
60481,-1.59
60494,1.06
60507,0.31
60521,-1.33
60534,1.04
60547,0.77
60561,-1.46
60574,0.06
60587,0.43
60601,-0.27
60614,1.56
60627,-0.52
60641,-2.35
60654,1.09
60667,0.82
60681,-0.13
60694,0.51
60707,-0.52
60720,-1.25
60734,1.63
60747,0.24
60760,-1.85
60774,0.93
60787,0.53
60801,-1.01
60814,1.13
60827,0.74
60841,-2.35
60854,0.63
60867,0.87
60881,-0.71
60894,0.90
60907,0.16
60921,-1.77
60934,0.16
60947,1.52
60961,-0.76
60974,1.02
60987,-0.23
61001,-1.89
61014,0.80
61027,1.11
61041,-1.68
61054,0.92
61067,1.49
61081,-1.73
61094,0.31
61107,0.08
61121,-1.08
61134,1.37
61147,0.21
61161,-1.50
61174,1.22
61187,0.26
61201,-0.75
61214,0.18
61227,0.39
61241,-1.57
61254,1.26
61267,1.39
61281,-2.07
61294,0.12
61307,1.07
61321,-1.40
61334,0.86
61347,1.14
61361,-1.87
61374,0.42
61387,1.08
61401,-1.49
61414,0.02
61427,1.84
61441,-1.32
61454,0.00
61467,0.51
61480,-1.39
61494,0.56
61507,2.11
61521,-1.42
61534,-1.06
61547,1.02
61561,-0.84
61574,0.26
61587,1.65
61601,-1.29
61614,-0.55
61627,1.25
61641,-1.28
61654,0.48
61667,0.82
61680,-1.49
61694,0.27
61707,1.97
61721,-1.33
61734,-0.91
61747,1.10
61761,-0.88
61774,0.34
61787,0.96
61801,-0.61
61814,0.01
61827,0.08
61841,-1.17
61854,1.03
61867,0.88
61881,-1.78
61894,0.18
61907,1.99
61921,-0.57
61934,-1.69
61947,0.53
61961,-0.53
61974,1.53
61987,0.91
62001,-2.24
62014,-0.34
62027,1.88
62041,-0.24
62054,-1.27
62067,0.68
62081,-0.54
62094,0.62
62107,1.43
62121,-1.99
62134,-0.13
62147,0.87
62161,-1.06
62174,0.71
62188,1.27
62201,-0.88
62214,-0.67
62227,0.55
62241,-1.38
62254,0.43
62267,2.25
62280,-0.99
62294,-0.81
62307,0.81
62320,-1.30
62334,-0.01
62347,1.60
62360,-0.34
62374,-1.00
62387,0.89
62401,-0.68
62414,0.29
62427,1.26
62441,-1.73
62454,-0.56
62467,1.68
62481,-0.69
62494,-0.08
62507,1.26
62521,-1.40
62534,-0.41
62547,1.44
62561,-1.04
62574,-0.19
62587,1.28
62601,-0.51
62614,-0.97
62627,1.01
62641,-0.59
62654,0.32
62667,1.09
62681,-1.12
62694,-1.25
62707,1.29
62721,-0.13
62734,0.51
62747,1.09
62761,-2.03
62774,-0.72
62787,1.70
62801,-0.58
62814,0.00
62827,1.28
62841,-1.42
62854,-0.43
62867,1.27
62881,-0.40
62894,-0.86
62907,0.90
62921,0.04
62934,-0.38
62947,0.69
62961,-0.57
62974,-0.67
62987,0.96
63001,-0.11
63014,-0.48
63027,0.81
63041,-0.37
63054,-0.61
63067,0.85
63081,-0.27
63094,-0.54
63107,0.86
63121,-0.29
63134,-0.57
63149,0.85
63160,-0.29
63174,-0.56
63187,0.85
63201,-0.29
63214,-0.56
63227,0.85
63240,-0.29
63254,-0.56
63267,0.85
63281,-0.29
63294,-0.56
63307,0.85
63321,-0.14
63334,-1.20
63347,1.53
63361,0.24
63374,-1.76
63387,0.94
63401,0.26
63414,-0.49
63427,0.58
63441,-0.22
63454,-1.03
63467,1.65
63481,-0.02
63494,-1.31
63507,0.21
63521,0.15
63534,-0.43
63547,1.89
63561,-0.22
63574,-1.65
63587,0.02
63601,0.03
63614,0.35
63627,1.33
63641,-0.57
63654,-1.11
63667,0.57
63681,-0.17
63694,-0.29
63707,1.01
63721,-0.30
63734,-0.66
63747,0.77
63761,-0.31
63774,-0.54
63787,0.72
63801,0.37
63814,-1.23
63827,0.47
63841,0.26
63854,0.02
63867,0.68
63881,-0.92
63894,-0.87
63907,1.11
63921,0.31
63934,-1.01
63947,1.38
63961,-0.01
63974,-1.89
63987,0.97
64000,0.52
64014,-1.06
64027,1.27
64041,-0.02
64054,-0.97
64067,0.37
64081,-0.08
64094,-0.77
64107,1.79
64121,0.11
64134,-2.06
64147,0.80
64161,0.36
64174,-0.32
64187,0.66
64201,-0.25
64214,-1.11
64227,1.44
64241,0.78
64254,-2.60
64267,0.37
64281,1.75
64294,-1.07
64307,0.59
64321,0.52
64334,-1.43
64347,-0.12
64361,0.95
64374,-0.95
64387,1.21
64400,0.88
64414,-2.40
64427,0.39
64441,0.74
64454,-0.56
64467,1.16
64481,0.42
64494,-2.54
64507,0.62
64521,1.78
64534,-1.28
64547,0.40
64561,0.69
64574,-1.76
64587,0.05
64600,2.03
64614,-1.04
64627,-0.65
64641,1.11
64654,-1.22
64667,0.63
64681,0.87
64694,-1.60
64707,0.13
64721,1.92
64734,-1.43
64747,-0.02
64761,-0.17
64774,-0.59
64787,1.09
64800,1.61
64814,-2.22
64827,-0.34
64840,0.92
64854,-0.91
64867,0.59
64881,1.67
64894,-0.99
64907,-1.70
64920,0.81
64934,-0.18
64947,0.83
64961,1.40
64974,-1.97
64987,-0.87
65000,1.53
65014,-0.65
65027,0.04
65041,1.20
65054,-0.73
65067,-1.10
65081,1.03
65094,-0.50
65107,0.39
65121,1.26
65134,-1.78
65147,-0.61
65161,1.65
65174,-0.70
65187,-0.08
65201,1.27
65214,-1.39
65227,-0.40
65240,1.44
65254,-1.03
65267,-0.19
65281,1.43
65294,-1.32
65307,0.34
65320,0.71
65334,-1.53
65347,0.29
65361,2.00
65374,-1.31
65387,-0.89
65401,1.10
65414,-0.88
65427,0.18
65440,1.60
65454,-1.29
65467,-0.53
65481,1.28
65494,-1.11
65507,-0.16
65521,1.49
65534,-1.12
65547,-0.29
65561,1.38
65574,-1.16
65587,-0.28
65601,1.41
65614,-1.13
65627,-0.26
65640,1.42
65654,-1.14
65667,-0.27
65680,1.26
65694,-0.50
65707,-0.95
65720,1.03
65734,-0.59
65747,0.32
65760,1.08
65774,-1.12
65787,-1.26
65801,1.13
65814,0.51
65827,-0.17
65840,0.71
65854,-1.47
65867,-0.13
65881,1.37
65894,-0.57
65907,-0.99
65920,1.16
65934,-0.41
65947,0.34
65960,0.95
65974,-1.28
65987,-1.31
66001,1.35
66014,-0.04
66027,0.56
66040,1.09
66054,-2.05
66067,-0.75
66080,1.53
66094,0.06
66107,-0.67
66121,0.75
66134,-0.21
66147,-0.52
66160,0.72
66174,-0.47
66187,-0.59
66201,0.98
66214,-0.14
66227,-0.51
66240,0.79
66254,-0.22
66267,-1.25
66280,1.53
66294,0.12
66307,-1.09
66321,0.28
66334,-0.11
66347,0.06
66360,1.16
66374,-0.55
66387,-1.01
66401,0.66
66414,-0.14
66427,-0.30
66440,0.99
66454,-0.17
66467,-1.31
66480,1.45
66494,0.22
66507,-1.74
66521,0.97
66534,0.44
66547,-1.13
66561,1.25
66574,0.16
66587,-1.59
66600,0.90
66614,0.95
66627,-2.00
66641,0.81
66654,0.68
66667,-0.20
66680,0.27
66694,-0.90
66707,-0.52
66721,1.31
66734,0.02
66747,-0.64
66761,0.59
66774,-0.28
66787,-1.17
66800,1.64
66814,0.31
66827,-1.77
66840,0.90
66854,0.39
66867,-1.14
66880,1.26
66894,0.17
66907,-1.58
66920,1.06
66934,0.31
66947,-1.33
66960,1.19
66974,0.28
66987,-1.43
67000,0.96
67014,0.90
67027,-2.09
67040,0.76
67054,0.83
67067,-0.82
67080,0.97
67094,-0.36
67107,-1.73
67120,1.40
67134,0.72
67147,-1.22
67160,0.99
67174,0.01
67187,-1.54
67200,1.18
67214,0.38
67227,-1.33
67240,1.16
67254,0.09
67267,-0.80
67280,0.44
67294,-0.12
67307,-0.85
67320,1.58
67334,0.75
67347,-2.71
67360,0.29
67374,1.73
67387,-1.05
67400,0.62
67414,0.69
67427,-2.07
67441,0.71
67454,0.68
67467,-0.84
67480,1.16
67494,-0.14
67507,-1.69
67520,1.10
67534,1.19
67547,-1.96
67560,0.51
67574,1.31
67587,-1.58
67600,0.47
67614,0.93
67627,-1.76
67640,0.69
67654,1.27
67667,-1.65
67680,0.68
67694,0.39
67707,-1.08
67720,0.96
67734,0.59
67747,-2.10
67761,0.12
67774,2.42
67787,-1.01
67801,-0.24
67814,0.08
67827,-1.72
67840,1.35
67854,1.69
67867,-1.82
67880,0.10
67894,0.82
67907,-1.48
67920,0.17
67934,1.95
67947,-1.17
67961,-0.71
67974,1.14
67987,-1.01
68000,0.02
68014,1.55
68027,-1.39
68040,0.21
68054,0.65
68067,-1.49
68080,0.36
68094,2.05
68107,-1.46
68120,-0.28
68134,0.40
68147,-1.28
68160,0.73
68174,2.19
68187,-1.45
68200,-1.15
68214,0.97
68227,-0.85
68240,0.28
68254,1.68
68267,-1.27
68280,-0.55
68294,1.25
68307,-1.13
68320,-0.17
68334,1.49
68347,-1.11
68360,-0.29
68374,1.38
68387,-1.16
68400,-0.28
68414,1.41
68427,-1.14
68440,-0.27
68454,1.26
68467,-0.50
68480,-0.94
68494,1.03
68507,-0.58
68520,0.32
68534,1.24
68547,-1.77
68560,-0.59
68574,1.67
68587,-0.69
68600,-0.08
68614,1.26
68627,-1.40
68640,-0.41
68654,1.29
68667,-0.39
68680,-0.86
68694,1.05
68707,-0.60
68720,0.29
68734,1.22
68747,-1.77
68760,-0.58
68774,1.52
68787,-0.04
68800,-0.75
68814,0.88
68827,-0.84
68840,0.18
68854,1.27
68867,-1.66
68880,-0.51
68894,1.68
68907,-0.71
68920,-0.11
68934,1.24
68947,-1.40
68960,-0.40
68974,1.30
68987,-0.38
69001,-0.86
69014,0.90
69027,0.04
69040,-0.39
69054,0.84
69067,-1.22
69080,0.00
69094,1.50
69107,-1.31
69120,-0.39
69134,1.37
69147,-0.30
69160,-0.89
69174,0.76
69187,-0.09
69201,-0.41
69214,0.75
69227,-0.48
69240,-0.62
69254,0.96
69267,0.01
69280,-1.15
69294,1.47
69307,0.16
69321,-1.81
69334,0.94
69347,0.45
69360,-1.10
69374,1.27
69387,0.01
69400,-0.95
69414,0.38
69427,-0.23
69441,-0.13
69454,1.11
69467,-0.43
69480,-0.86
69494,0.56
69507,0.45
69521,-1.06
69534,0.55
69547,0.39
69560,-0.70
69574,1.30
69587,-0.54
69600,-1.41
69614,0.55
69627,0.50
69640,-0.39
69654,1.68
69667,-0.28
69680,-2.35
69694,0.78
69707,0.52
69720,-0.15
69734,0.73
69747,-0.27
69761,-1.16
69774,1.55
69787,0.11
69800,-1.93
69814,0.92
69827,0.56
69840,-0.98
69854,1.31
69867,0.10
69880,-1.67
69894,1.01
69907,0.31
69920,-1.30
69934,1.22
69947,0.29
69960,-1.43
69974,1.11
69987,0.25
70000,-1.42
70014,1.14
70027,0.12
70040,-0.76
70054,0.32
70067,0.54
70080,-1.53
70094,1.35
70107,0.65
70120,-1.45
70134,0.65
70147,-0.26
70160,-0.63
70174,0.76
70187,0.84
70200,-1.59
70214,0.91
70227,1.08
70241,-2.15
70254,0.23
70267,1.23
70280,-1.30
70294,0.87
70307,1.10
70320,-1.92
70334,0.39
70347,1.07
70360,-1.64
70374,0.66
70387,1.17
70400,-1.69
70414,0.57
70427,1.10
70440,-1.71
70457,0.57
70467,1.12
70480,-1.70
70494,0.58
70507,1.12
70520,-1.70
70534,0.58
70547,1.12
70560,-1.55
70574,-0.07
70587,1.79
70600,-1.17
70614,-0.62
70627,1.21
70640,-1.15
70654,0.65
70667,0.85
70680,-1.78
70694,0.76
70707,1.24
70720,-1.66
70734,-0.26
70747,1.74
70760,-1.05
70774,-0.47
70787,1.26
70800,-1.20
70814,0.56
70827,0.80
70840,-1.78
70854,0.79
70867,1.27
70881,-1.64
70894,-0.25
70907,1.73
70920,-1.06
70934,-0.48
70947,1.26
70960,-1.20
70974,0.57
70987,0.80
71000,-1.63
71014,0.15
71027,1.95
71040,-1.26
71054,-0.81
71067,1.14
71080,-0.89
71094,0.15
71107,1.57
71120,-1.30
71134,-0.53
71147,1.28
71160,-1.10
71174,-0.16
71187,1.49
71200,-1.12
71214,-0.29
71227,1.38
71240,-1.16
71254,-0.28
71267,1.41
71281,-1.13
71294,-0.26
71307,1.42
71320,-1.29
71334,0.38
71347,0.58
71360,-0.88
71374,-0.39
71387,1.61
71400,-0.76
71414,-0.31
71427,0.77
71440,-0.86
71454,-0.81
71467,1.48
71480,-0.28
71493,0.25
71507,0.95
71520,-1.99
71534,-0.61
71547,1.78
71560,-0.56
71573,-0.02
71587,1.10
71600,-0.79
71614,-1.12
71627,1.05
71640,-0.48
71654,0.40
71667,1.27
71680,-1.78
71694,-0.61
71707,1.65
71720,-0.70
71734,-0.08
71747,1.26
71760,-1.39
71774,-0.40
71787,1.45
71800,-1.03
71814,-0.19
71827,1.43
71840,-1.16
71854,-0.30
71867,1.23
71880,-0.51
71894,-0.94
71907,1.04
71920,-0.58
71934,0.32
71947,1.09
71960,-1.12
71974,-1.26
71987,1.13
72000,0.66
72014,-0.81
72027,1.23
72040,-0.44
72054,-1.36
72067,0.41
72080,0.17
72094,0.23
72107,1.30
72120,-1.14
72134,-1.06
72147,1.69
72160,-0.15
72174,-2.06
72187,1.27
72200,0.86
72214,-0.44
72227,0.88
72240,-1.52
72254,-0.93
72267,1.71
72280,0.46
72293,-0.79
72307,0.13
72320,-0.45
72334,-0.88
72347,2.01
72360,0.25
72374,-1.32
72387,-0.02
72400,-0.09
72414,-0.52
72427,1.97
72440,0.08
72454,-2.19
72467,0.72
72480,0.37
72493,-0.26
72507,0.70
72520,-0.25
72534,-1.12
72547,1.58
72560,-0.03
72574,-1.28
72587,0.24
72600,0.02
72613,0.22
72627,1.21
72640,-0.61
72654,-1.10
72667,0.61
72680,0.02
72693,-0.92
72707,1.69
72720,0.07
72734,-1.22
72747,0.18
72760,-0.14
72774,0.08
72787,1.19
72800,-0.53
72814,-1.00
72827,0.66
72840,-0.14
72854,-0.31
72867,0.98
72880,-0.17
72893,-1.31
72907,1.44
72920,0.22
72933,-1.74
72947,0.97
72960,0.44
72973,-1.13
72987,1.25
73000,0.15
73013,-1.59
73027,1.06
73040,0.31
73054,-1.33
73067,1.20
73080,0.28
73094,-1.43
73107,1.12
73120,0.26
73134,-1.41
73147,1.14
73160,0.27
73174,-1.41
73187,1.14
73200,0.27
73213,-1.41
73227,1.14
73240,0.27
73254,-1.41
73267,0.98
73280,0.91
73293,-2.09
73307,0.61
73320,1.47
73334,-1.50
73347,0.43
73360,0.84
73374,-1.81
73387,0.69
73400,1.29
73413,-1.62
73427,0.54
73440,1.04
73454,-1.76
73467,0.58
73480,1.14
73494,-1.68
73507,0.59
73520,1.12
73534,-1.71
73547,0.73
73560,0.47
73574,-1.03
73587,1.11
73600,-0.08
73614,-1.46
73627,0.49
73640,1.87
73654,-1.59
73667,-0.06
73681,0.71
73694,-1.41
73707,1.10
73720,1.24
73734,-1.86
73747,-0.24
73760,1.11
73774,-0.44
73787,0.61
73800,0.02
73813,-2.20
73827,1.27
73840,2.01
73854,-1.48
73867,-0.73
