Time (ms),EMG Value
2002,0.18
2015,0.12
2028,1.15
2042,-1.28
2055,-0.24
2069,1.18
2082,-0.67
2095,-0.98
2108,1.21
2122,-0.37
2135,0.36
2149,1.10
2162,-1.93
2175,-0.64
2189,1.57
2202,0.04
2215,-0.85
2228,1.37
2242,-0.90
2255,-1.06
2269,1.92
2282,-0.55
2295,-1.14
2309,1.07
2322,-0.50
2335,0.25
2349,0.99
2362,-1.06
2375,-1.25
2389,1.86
2402,-0.25
2415,-0.87
2428,1.82
2442,-1.52
2455,-0.58
2469,1.39
2482,-0.27
2495,-0.94
2509,0.93
2522,-0.57
2535,0.44
2548,1.15
2562,-1.21
2575,-1.41
2589,1.05
2602,0.55
2615,-0.06
2628,0.79
2642,-1.60
2655,0.32
2668,1.30
2682,-1.65
2695,-0.97
2709,2.80
2722,-0.01
2735,-1.65
2749,0.84
2762,-0.86
2775,-0.57
2789,1.58
2802,0.28
2815,-0.91
2829,0.89
2842,-1.30
2855,-0.77
2868,1.77
2882,0.63
2895,-1.46
2908,0.72
2922,-0.32
2935,-0.84
2948,0.94
2962,-0.36
2975,-0.20
2989,2.58
3002,-1.56
3015,-2.67
3029,1.56
3042,0.81
3055,-0.69
3068,2.27
3082,-1.08
3095,-2.18
3109,0.51
3122,0.89
3135,-0.38
3149,2.18
3162,-1.22
3175,-1.98
3188,0.83
3202,0.91
3215,-0.70
3228,1.86
3242,-1.09
3255,-2.41
3268,1.74
3282,1.37
3295,-1.18
3308,0.51
3322,-0.48
3335,-0.76
3348,0.86
3362,0.18
3375,-0.87
3389,1.54
3402,-0.19
3415,-1.40
3428,0.22
3442,0.21
3455,-0.39
3469,1.90
3482,-0.23
3495,-1.66
3509,0.01
3522,0.18
3535,-0.29
3548,2.00
3562,-0.03
3575,-2.32
3588,0.66
3602,0.54
3615,-0.86
3629,1.41
3642,-0.01
3655,-1.04
3669,0.15
3682,0.55
3695,-1.43
3708,1.43
3722,0.68
3735,-1.47
3749,0.62
3762,-0.12
3775,-1.28
3788,1.59
3802,0.58
3815,-1.47
3828,-5.01
3842,24.53
3855,-27.07
3869,-23.69
3882,65.37
3895,-24.92
3909,-49.83
3922,91.59
3935,-54.39
3949,-59.62
3962,96.30
3975,-2.39
3989,-45.83
4002,17.17
4015,-6.88
4028,-5.12
4042,9.12
4055,9.22
4068,0.81
4082,-8.33
4095,-7.37
4108,2.62
4122,6.00
4135,0.47
4149,-0.80
4162,-1.15
4175,-2.54
4188,1.30
4202,2.23
4215,-1.18
4229,0.40
4242,0.62
4255,-2.11
4268,0.28
4282,1.86
4295,-2.17
4308,0.40
4322,1.78
4335,-1.13
4349,0.32
4362,0.40
4375,-2.07
4389,0.82
4402,1.59
4415,-1.48
4428,0.46
4442,0.89
4455,-1.83
4468,0.61
4482,1.22
4495,-1.64
4508,0.59
4522,1.09
4535,-1.73
4549,0.57
4562,1.12
4575,-1.69
4589,0.59
4602,1.12
4615,-1.70
4628,0.58
4642,1.12
4655,-1.70
4668,0.58
4682,1.12
4695,-1.70
4708,0.58
4722,1.12
4735,-1.70
4748,0.58
4762,1.12
4775,-1.70
4788,0.58
4802,1.12
4815,-1.70
4828,0.58
4842,1.12
4855,-1.70
4868,0.58
4882,1.12
4895,-1.70
4908,0.58
4922,1.12
4935,-1.70
4948,0.58
4962,1.12
4975,-1.70
4989,0.58
5002,1.12
5015,-1.70
5029,0.58
5042,1.12
5055,-1.70
5069,0.58
5082,1.12
5095,-1.70
5108,0.58
5122,1.12
5135,-1.70
5148,0.58
5162,1.12
5175,-1.70
5189,0.58
5202,1.12
5215,-1.70
5229,0.58
5242,1.12
5255,-1.70
5269,0.58
5282,1.12
5295,-1.70
5308,0.43
5322,1.61
5335,-1.58
5348,-1.12
5362,1.82
5375,0.47
5388,-0.24
5402,-0.65
5415,-1.76
5429,1.09
5442,2.49
5455,-0.92
5469,-1.37
5482,-0.18
5495,-0.76
5508,2.14
5522,1.39
5535,-2.69
5548,-0.32
5562,1.14
5575,-1.07
5588,0.92
5602,1.77
5615,-2.67
5628,-0.06
5642,1.62
5655,-0.87
5668,-0.29
5682,1.87
5695,-2.31
5708,-0.28
5722,2.01
5735,-0.64
5748,-0.97
5762,1.89
5775,-0.75
5789,-1.57
5802,1.44
5817,-0.55
5828,-0.07
5842,1.43
5855,-1.66
5868,-0.12
5882,2.64
5895,-1.99
5908,-1.59
5922,2.18
5935,-0.85
5948,-0.26
5962,2.17
5975,-1.13
5988,-1.86
6002,1.62
6015,-0.11
6029,-0.76
6042,1.80
6055,-1.50
6068,-0.60
6082,2.15
6095,-0.99
6108,-1.63
6122,1.84
6135,-0.03
6149,-0.86
6162,1.44
6175,-1.00
6188,-1.28
6202,1.86
6215,-0.32
6229,-0.99
6242,1.81
6255,-1.34
6268,-0.53
6282,2.06
6295,-1.11
6308,-1.67
6322,1.90
6335,0.05
6348,-0.81
6362,1.44
6375,-1.04
6388,-1.32
6402,1.85
6415,-0.32
6429,-0.99
6442,1.67
6455,-0.68
6468,-1.20
6482,1.68
6495,-0.56
6508,-1.09
6522,1.72
6535,-0.57
6549,-0.97
6562,1.05
6575,0.09
6588,-0.74
6602,1.14
6615,-1.17
6629,-0.79
6642,1.68
6655,0.41
6668,-0.84
6682,0.05
6695,-0.68
6708,-0.42
6722,2.03
6735,-0.72
6749,-1.24
6762,1.77
6775,-0.54
6788,-1.25
6802,1.53
6815,-0.61
6829,-0.99
6842,1.86
6855,-0.53
6868,-1.18
6882,1.61
6895,-0.63
6908,-1.12
6922,1.73
6935,-0.55
6948,-1.11
6962,1.70
6975,-0.58
6988,-1.13
7002,1.69
7015,-0.59
7028,-0.97
7042,1.06
7055,0.25
7068,-1.38
7082,1.82
7095,-0.78
7108,-1.50
7122,1.74
7135,-0.10
7148,-0.60
7162,0.92
7175,-0.35
7188,-0.89
7202,0.57
7215,-0.21
7228,-0.19
7242,1.00
7255,0.35
7268,-1.63
7282,0.73
7295,0.17
7308,-0.95
7322,0.98
7335,0.30
7348,-0.61
7362,0.92
7375,-1.49
7388,-0.98
7402,2.45
7415,0.65
7428,-1.87
7442,-0.12
7455,0.91
7469,-0.58
7482,0.13
7495,0.33
7508,-0.79
7522,0.56
7535,0.73
7548,-0.94
7562,0.08
7575,0.58
7588,-1.48
7602,1.06
7615,1.18
7628,-2.02
7642,0.36
7655,1.24
7668,-1.60
7682,1.48
7695,-0.31
7708,-1.73
7722,2.09
7735,0.37
7748,-2.11
7762,0.07
7775,1.49
7788,-0.28
7802,0.67
7815,-0.85
7829,-1.59
7842,1.08
7855,1.73
7868,-1.47
7882,0.24
7895,0.58
7908,-1.91
7922,0.84
7935,1.52
7948,-1.52
7962,0.45
7975,0.87
7988,-1.85
8002,0.60
8015,1.24
8028,-1.60
8042,0.61
8055,0.94
8068,-1.10
8082,-0.13
8095,0.73
8108,-1.14
8122,1.18
8135,0.96
8148,-2.32
8161,0.27
8175,1.38
8188,-1.25
8202,0.77
8215,0.97
8228,-1.96
8242,0.44
8255,1.16
8268,-1.59
8282,0.66
8295,1.14
8308,-1.88
8322,1.19
8335,0.42
8348,-2.09
8362,1.14
8375,1.71
8388,-2.02
8402,0.60
8415,0.14
8428,-1.98
8442,2.23
8455,1.22
8468,-2.40
8482,0.25
8495,1.26
8508,-1.58
8522,0.51
8535,1.08
8548,-1.57
8562,0.75
8575,1.15
8588,-1.84
8602,0.42
8615,1.07
8629,-1.64
8642,0.67
8655,1.18
8668,-1.70
8682,0.55
8695,1.09
8708,-1.41
8722,-0.87
8735,3.12
8748,-1.46
8762,-1.71
8775,1.98
8788,-1.70
8802,1.40
8815,1.47
8828,-2.33
8842,-0.35
8855,1.69
8868,-1.83
8882,0.53
8895,2.34
8908,-2.10
8922,-0.24
8935,1.02
8948,-1.30
8962,0.78
8975,0.97
8988,-1.86
9002,0.49
9015,1.94
9028,-2.32
9042,-0.06
9055,2.18
9068,-1.84
9081,0.08
9095,0.98
9108,-0.73
9122,-0.01
9135,0.38
9148,-0.50
9162,-0.06
9175,1.43
9188,-1.33
9201,0.19
9215,0.17
9228,-0.47
9242,-0.21
9255,0.87
9268,-0.45
9281,0.71
9295,1.11
9308,-2.45
9322,-1.21
9335,2.40
9348,-0.07
9361,-0.87
9375,1.97
9388,-1.18
9401,-1.17
9415,1.20
9428,-0.17
9442,-0.42
9455,0.29
9468,-0.62
9482,-0.09
9495,2.59
9508,-1.59
9522,-0.53
9535,1.02
9548,-2.21
9562,0.13
9575,2.20
9588,-0.43
9602,0.10
9615,1.00
9628,-3.22
9642,-0.81
9655,4.03
9668,-0.86
9681,-0.49
9695,1.42
9708,-2.93
9722,-0.43
9735,1.83
9748,0.01
9762,0.45
9775,1.75
9788,-2.93
9802,-1.59
9815,2.76
9828,-0.66
9841,0.22
9855,1.18
9868,-1.61
9881,-1.16
9895,2.39
9908,-0.23
9922,-1.45
9935,1.23
9948,-0.65
9962,-0.82
9975,1.99
9988,-0.54
10002,-1.28
10015,1.69
10028,-1.27
10042,-0.40
10055,2.15
10068,-0.94
10082,-2.50
10095,3.34
10108,-0.91
10122,-1.08
10135,1.79
10148,-0.98
10162,-0.80
10175,1.19
10188,-1.29
10202,0.37
10215,2.79
10228,-2.17
10241,-1.82
10255,1.95
10268,-0.15
10282,-0.86
10295,1.82
10308,-0.74
10321,-0.34
10335,-0.36
10348,-0.41
10362,0.93
10375,1.76
10388,-2.31
10404,-1.96
10415,2.73
10428,0.82
10441,-0.93
10455,0.74
10468,-1.52
10482,-1.24
10495,2.25
10508,-0.02
10522,-0.95
10535,1.52
10548,-0.84
10562,-1.27
10575,1.69
10588,-0.52
10602,-1.06
10615,1.74
10628,-0.57
10642,-1.12
10655,1.69
10668,-0.59
10682,-0.98
10695,1.05
10708,0.09
10722,-0.74
10735,1.15
10748,-1.16
10762,-0.94
10775,2.33
10788,-0.27
10802,-1.38
10815,1.25
10828,-0.77
10842,-0.97
10855,1.96
10868,-0.44
10882,-1.15
10895,1.59
10908,-0.66
10922,-1.14
10935,1.72
10948,-0.40
10962,-1.74
10975,2.38
10988,-0.20
11002,-1.53
11015,0.31
11028,0.91
11042,-0.79
11055,1.08
11068,-0.87
11081,-0.81
11095,1.97
11108,-0.59
11122,-2.08
11135,2.32
11148,0.18
11162,-1.94
11175,1.17
11188,0.50
11202,-0.66
11215,0.18
11228,-0.37
11242,-0.96
11255,2.61
11268,-0.42
11282,-2.46
11295,1.09
11308,1.52
11322,-1.31
11335,0.20
11348,-0.00
11362,-1.47
11375,2.52
11388,0.64
11402,-2.55
11415,0.10
11428,0.66
11442,-1.05
11455,2.42
11468,0.56
11482,-3.07
11495,0.23
11508,1.74
11522,-1.16
11535,0.53
11548,0.82
11562,-1.97
11575,1.34
11588,0.56
11601,-2.25
11615,1.68
11628,0.98
11642,-2.39
11655,1.21
11668,0.60
11682,-1.35
11695,0.26
11708,1.19
11722,-1.22
11735,0.73
11748,0.69
11762,-2.18
11775,0.57
11788,1.52
11801,-1.35
11815,0.60
11828,0.89
11842,-1.93
11855,0.52
11868,1.21
11882,-1.59
11895,0.64
11908,1.12
11922,-1.89
11935,1.19
11948,0.43
11962,-2.08
11975,1.14
11988,1.71
12002,-1.87
12015,-0.04
12028,0.81
12042,-1.44
12055,1.03
12068,1.31
12081,-1.85
12095,0.32
12108,0.99
12122,-1.67
12135,0.69
12149,1.20
12162,-1.68
12175,0.56
12188,1.09
12202,-1.72
12215,0.57
12228,1.12
12242,-1.69
12255,0.59
12268,1.13
12282,-1.70
12295,0.58
12308,1.12
12322,-1.70
12335,0.58
12348,1.12
12362,-1.86
12375,1.22
12389,0.45
12402,-2.08
12415,1.14
12428,1.71
12441,-1.87
12455,-0.05
12468,0.81
12482,-1.45
12495,1.03
12508,1.31
12521,-1.85
12535,0.32
12548,0.99
12562,-1.67
12575,0.53
12588,1.84
12602,-2.36
12615,0.18
12628,1.65
12642,-1.13
12655,0.40
12668,0.50
12682,-2.01
12696,0.84
12708,1.57
12721,-1.51
12735,0.43
12748,0.86
12762,-1.84
12775,0.61
12788,1.23
12801,-1.62
12815,0.60
12828,1.10
12841,-1.73
12855,0.56
12868,0.96
12882,-1.06
12895,-0.09
12908,0.75
12922,-1.14
12935,1.17
12948,0.95
12962,-2.33
12975,0.27
12989,1.22
13002,-0.46
13015,-0.55
13028,1.27
13042,-1.02
13055,0.48
13068,0.40
13082,-1.89
13095,0.33
13108,2.38
13122,-1.15
13135,-0.27
13148,0.17
13161,-1.49
13175,0.53
13188,2.93
13201,-2.17
13215,-0.98
13228,1.49
13241,-1.35
13255,0.10
13268,2.83
13282,-1.85
13295,-1.62
13308,1.96
13321,-1.07
13335,-0.32
13348,2.45
13362,-1.61
13375,-1.11
13388,2.12
13402,-1.55
13415,-0.07
13428,1.67
13442,-1.79
13455,-0.30
13468,2.66
13482,-0.98
13495,-2.14
13508,1.57
13522,-0.61
13535,0.36
13548,1.48
13561,-0.89
13575,-1.69
13588,1.29
13601,-0.33
13615,-0.45
13628,2.11
13642,-0.78
13655,-1.64
13668,1.37
13681,-0.51
13695,-0.82
13708,2.09
13722,-1.19
13735,-0.56
13748,2.10
13762,-1.84
13775,-1.02
13788,2.30
13802,-0.47
13815,-1.38
13828,1.77
13842,-1.05
13855,-0.33
13868,2.12
13882,-1.98
13895,-1.09
13908,2.37
13922,-0.36
13935,-1.34
13948,1.57
13962,-0.48
13975,-1.05
13988,1.59
14002,-0.75
14015,-1.15
14028,1.83
14042,-0.43
14055,-1.07
14068,1.64
14082,-0.67
14095,-1.17
14108,1.70
14122,-0.55
14135,-1.09
14148,1.72
14162,-0.58
14175,-1.12
14188,1.69
14201,-0.59
14215,-1.13
14228,1.70
14242,-0.58
14255,-0.96
14268,1.06
14282,0.10
14295,-0.74
14308,1.14
14322,-1.17
14335,-0.95
14348,2.33
14362,-0.27
14375,-1.38
14388,1.25
14401,-0.77
14415,-0.97
14428,1.96
14442,-0.45
14456,-1.16
14468,1.59
14481,-0.66
14495,-0.99
14508,1.08
14521,0.13
14535,-0.72
14548,1.15
14562,-1.17
14575,-0.95
14588,2.32
14606,-0.27
14615,-1.38
14628,1.25
14641,-0.77
14655,-0.97
14668,1.96
14681,-0.44
14695,-1.15
14708,1.59
14721,-0.66
14735,-1.14
14748,1.72
14762,-0.55
14775,-1.10
14788,1.71
14802,-0.58
14815,-1.13
14828,1.70
14842,-0.58
14855,-0.97
14868,1.06
14882,0.25
14895,-1.38
14908,1.67
14922,-0.14
14935,-2.18
14948,1.36
14962,0.46
14975,-0.17
14988,1.24
15002,-1.01
15015,-2.25
15028,1.00
15042,1.38
15055,0.41
15068,0.05
15082,-0.85
15095,-1.82
15108,1.62
15122,0.43
15135,-0.95
15148,2.29
15162,-0.96
15175,-2.11
15188,0.39
15201,1.55
15215,-0.90
15228,1.13
15241,0.12
15255,-1.84
15268,1.27
15282,0.07
15295,-2.42
15308,2.19
15322,1.62
15335,-2.27
15348,0.76
15362,0.25
15375,-2.14
15388,1.16
15402,1.87
15415,-1.63
15428,0.10
15441,0.75
15455,-1.64
15468,0.86
15482,1.28
15495,-1.92
15508,1.07
15521,0.37
15535,-2.05
15548,1.21
15561,1.76
15575,-1.87
15588,-0.07
15602,0.78
15615,-1.46
15628,1.03
15641,1.32
15655,-1.99
15668,0.98
15681,0.31
15695,-2.20
15708,1.89
15722,1.11
15735,-2.24
15748,0.49
15762,1.36
15775,-1.64
15788,0.40
15802,1.00
15815,-1.59
15828,0.78
15841,1.18
15855,-1.97
15868,1.08
15881,0.39
15895,-2.03
15908,1.22
15921,1.76
15935,-1.88
15948,-0.08
15962,0.78
15975,-1.46
15988,1.03
16001,1.32
16015,-1.84
16028,0.33
16041,0.99
16055,-1.67
16068,0.69
16081,1.20
16095,-1.68
16108,0.56
16122,1.09
16135,-1.72
16148,0.57
16161,1.12
16175,-1.85
16188,1.23
16202,0.45
16215,-2.08
16228,1.14
16241,1.71
16255,-1.87
16268,-0.05
16281,0.81
16295,-1.45
16308,1.03
16322,1.31
16335,-1.85
16348,0.32
16361,0.99
16375,-1.67
16388,0.69
16402,1.20
16415,-1.68
16428,0.56
16442,1.09
16455,-1.72
16468,0.57
16481,1.12
16495,-1.69
16508,0.59
16522,1.12
16535,-1.70
16548,0.58
16562,1.12
16575,-1.70
16588,0.58
16601,1.12
16615,-1.70
16628,0.58
16642,1.12
16655,-1.70
16668,0.58
16681,1.12
16695,-1.70
16708,0.58
16721,1.12
16735,-1.70
16748,0.58
16761,1.12
16775,-1.70
16788,0.43
16801,1.77
16815,-2.38
16828,0.20
16841,1.68
16855,-1.11
16868,0.41
16881,0.49
16895,-2.01
16908,0.84
16921,1.57
16935,-1.51
16949,0.43
16961,0.86
16975,-1.83
16988,0.61
17002,1.23
17015,-1.62
17030,0.60
17041,0.94
17055,-1.09
17068,-0.11
17081,0.58
17095,-0.50
17108,0.34
17121,1.22
17135,-2.44
17148,0.32
17161,2.25
17175,-1.32
17188,-0.77
17201,0.78
17215,-0.68
17228,1.30
17242,0.50
17255,-1.95
17268,-0.35
17281,1.24
17295,-0.55
17308,1.29
17321,0.65
17335,-2.67
17348,0.16
17361,1.48
17375,-0.94
17388,0.06
17401,2.29
17415,-2.14
17428,-1.18
17442,1.78
17455,-0.30
17468,-0.08
17481,0.92
17495,-1.58
17508,-0.37
17521,2.40
17535,-1.59
17548,-0.71
17561,1.77
17575,-0.68
17588,-0.59
17601,1.51
17615,-2.06
17628,-0.53
17641,2.89
17655,-0.42
17668,-1.82
17681,1.19
17695,-0.47
17708,-0.77
17721,1.99
17735,-1.34
17748,-0.42
17761,1.44
17775,-0.38
17788,-1.28
17801,1.45
17815,-1.24
17828,0.00
17841,2.61
17855,-1.89
17868,-1.30
17882,1.48
17895,-0.41
17908,-0.06
17921,1.81
17935,-2.17
17948,-0.70
17962,2.00
17975,0.23
17988,-1.16
18001,0.13
18015,-0.32
18028,-0.22
18041,2.02
18055,-1.65
18068,-0.68
18081,2.26
18095,-0.92
18108,-1.75
18122,1.82
18135,-0.70
18148,0.10
18161,1.33
18175,-0.83
18188,-1.55
18201,1.39
18214,-0.34
18228,-0.51
18241,2.06
18255,-0.80
18268,-1.48
18281,0.74
18295,0.18
18308,-0.43
18321,1.38
18335,-1.14
18348,-1.07
18361,2.19
18375,-0.33
18388,-1.37
18401,1.29
18415,-0.73
18428,-0.95
18441,1.96
18455,-0.45
18468,-1.16
18482,1.59
18495,-0.67
18508,-0.99
18521,1.08
18535,0.13
18548,-0.72
18561,1.16
18575,-1.17
18588,-0.95
18601,2.32
18615,-0.12
18628,-2.03
18641,1.92
18655,-0.39
18668,-1.53
18681,1.37
18695,-0.27
18708,-0.53
18722,1.91
18735,-0.92
18748,-1.44
18761,0.89
18775,0.27
18788,-0.46
18801,1.29
18815,-1.05
18828,-1.70
18841,2.92
18855,0.09
18868,-1.76
18881,0.05
18895,0.10
18908,0.20
18921,1.07
18935,-0.62
18948,-0.90
18962,0.82
18975,-0.11
18988,-0.44
19001,0.83
19015,-0.37
19028,-0.61
19041,0.86
19055,-0.10
19068,-1.18
19081,1.52
19095,0.08
19108,-1.13
19121,0.26
19135,-0.12
19148,0.07
19161,1.17
19175,-0.54
19188,-1.01
19201,0.66
19215,-0.14
19228,-0.31
19241,0.98
19255,-0.32
19268,-0.67
19281,0.77
19295,-0.31
19308,-0.54
19322,0.88
19335,-0.11
19348,-1.35
19361,2.01
19375,0.05
19388,-2.18
19401,0.44
19415,1.18
19428,-0.16
19441,1.04
19455,-0.95
19468,-2.42
19481,2.10
19500,0.53
19508,-1.22
19521,1.38
19535,0.97
19548,-2.64
19561,-0.04
19575,1.37
19588,-1.04
19601,0.96
19614,1.01
19628,-2.03
19641,0.38
19655,1.13
19668,-1.59
19682,0.66
19695,1.13
19708,-1.73
19721,0.56
19735,1.12
19748,-1.69
19761,0.58
19775,1.12
19788,-1.71
19801,0.57
19815,1.12
19828,-1.70
19841,0.58
19855,0.97
19868,-1.05
19881,-0.10
19895,0.74
19908,-1.15
19921,1.17
19935,0.95
19948,-2.48
19962,0.91
19975,0.70
19988,-1.79
20001,1.97
20015,0.88
20028,-2.51
20041,0.38
20055,1.43
20068,-1.51
20081,0.48
20095,0.86
20108,-0.97
20121,0.07
20135,0.78
20148,-1.27
20162,1.02
20175,0.90
20188,-2.27
20201,0.36
20215,1.43
20228,-1.25
20241,0.74
20255,0.94
20268,-1.97
20281,0.44
20295,1.16
20308,-1.59
20321,0.67
20335,1.15
20348,-1.72
20361,0.55
20375,1.10
20388,-1.71
20401,0.58
20415,1.12
20428,-1.69
20441,0.59
20455,1.12
20468,-1.70
20481,0.58
20495,1.12
20508,-1.70
20521,0.58
20535,1.12
20548,-1.70
20561,0.58
20575,1.12
20588,-1.70
20601,0.58
20615,1.12
20628,-1.70
20641,0.58
20654,1.12
20668,-1.70
20681,0.58
20695,1.12
20708,-1.70
20721,0.58
20735,1.12
20748,-1.70
20761,0.58
20775,1.12
20788,-1.70
20802,0.58
20815,1.12
20828,-1.70
20841,0.58
20855,1.12
20868,-1.70
20881,0.58
20895,1.12
20908,-1.70
20921,0.58
20935,1.12
20948,-1.70
20961,0.58
20975,1.12
20988,-1.70
21001,0.58
21015,1.12
21028,-1.70
21041,0.58
21055,1.12
21068,-1.70
21081,0.58
21095,1.12
21108,-1.70
21121,0.58
21135,1.12
21148,-1.70
21161,0.58
21175,1.12
21188,-1.70
21201,0.58
21215,1.12
21228,-1.70
21241,0.58
21255,1.12
21268,-1.70
21281,0.58
21295,0.97
21308,-1.06
21321,-0.09
21335,0.74
21348,-1.14
21361,1.17
21375,0.95
21388,-2.33
21401,0.27
21415,1.38
21428,-1.25
21441,0.77
21455,0.97
21468,-1.96
21481,0.45
21495,1.15
21508,-1.59
21521,0.51
21535,1.78
21548,-2.40
21561,0.17
21575,1.66
21588,-1.12
21601,0.41
21615,0.50
21628,-2.01
21641,0.84
21655,1.57
21668,-1.51
21681,0.43
21695,0.71
21708,-1.19
21721,-0.06
21735,0.85
21748,-1.06
21761,1.19
21775,0.93
21788,-2.36
21801,0.25
21815,1.37
21828,-1.25
21841,0.78
21855,0.98
21868,-1.95
21881,0.45
21895,1.16
21908,-1.59
21921,0.66
21935,1.14
21948,-1.57
21961,-0.10
21974,1.77
21988,-1.33
22001,0.03
22015,0.39
22028,-0.88
22041,0.54
22054,1.06
22068,-1.25
22081,0.07
22095,1.43
22108,-1.80
22121,-0.19
22135,1.57
22148,-1.63
22161,0.27
22175,2.28
22188,-0.47
22201,-2.03
22215,-0.08
22228,0.17
22241,0.36
22255,2.21
22268,-1.86
22281,-1.00
22295,2.25
22308,-1.53
22322,-0.96
22335,2.14
22348,-0.59
22361,-1.18
22375,1.10
22388,0.33
22401,-0.50
22415,0.47
22428,-1.38
22441,0.20
22455,1.80
22468,-1.20
22481,-0.51
22495,1.18
22508,-0.39
22521,-1.01
22535,1.64
22548,-1.35
22561,-0.27
22575,2.31
22588,-1.15
22601,-1.77
22615,1.06
22628,0.76
22641,-0.26
22655,1.01
22668,-1.62
22681,-1.23
22695,2.39
22708,-0.03
22721,-1.22
22735,1.26
22748,-0.85
22761,-1.05
22775,1.93
22788,-0.44
22801,-0.98
22815,0.96
22828,0.02
22841,-0.76
22855,1.16
22868,-1.14
22881,-0.93
22895,2.49
22908,-0.91
22921,-0.56
22935,0.98
22948,-0.66
22961,-1.03
22975,0.93
22988,0.27
23001,-0.29
23015,1.41
23028,-1.38
23041,-1.26
23055,1.40
23068,0.50
23081,-0.70
23094,0.92
23108,-1.33
23121,-0.92
23134,2.45
23148,-0.19
23161,-1.25
23175,0.54
23188,-0.14
23201,-0.44
23214,0.78
23228,-0.33
23241,-0.43
23254,1.02
23268,-0.27
23281,-0.85
23294,1.34
23308,-1.02
23321,-1.03
23334,2.15
23348,-0.32
23361,-1.27
23375,1.40
23388,-0.72
23401,-0.87
23415,1.22
23428,0.18
23441,-0.77
23455,1.07
23468,-1.22
23481,-0.95
23495,2.35
23508,-0.24
23521,-1.37
23535,1.25
23548,-0.78
23561,-0.98
23575,1.95
23588,-0.45
23601,-1.00
23615,0.95
23628,0.02
23641,-0.61
23655,0.52
23668,-0.46
23681,-0.39
23695,1.13
23708,-0.18
23721,-0.68
23735,0.67
23748,-0.37
23761,-0.68
23775,1.58
23788,-0.91
23801,-0.93
23815,1.39
23828,0.27
23841,-0.75
23854,0.22
23868,-0.60
23881,-0.45
23895,1.95
23908,-0.77
23921,-1.24
23935,1.80
23948,-0.51
23961,-1.08
23975,0.89
23988,0.06
24001,-0.61
24015,1.29
24028,-1.12
24041,-0.85
24055,1.59
24068,0.36
24081,-0.84
24095,0.08
24108,-0.65
24121,-0.40
24135,2.03
24148,-0.72
24161,-1.09
24174,1.12
24188,0.13
24201,-0.87
24215,0.82
24228,-0.39
24241,-1.97
24255,2.14
24268,1.40
24281,-1.03
24294,-0.31
24308,-1.07
24321,-1.65
24335,2.68
24348,2.50
24361,-2.56
24375,-0.37
24388,-0.42
24402,-0.88
24414,1.40
24428,1.58
24441,-0.92
24454,-0.59
24468,0.01
24481,-1.63
24494,2.11
24508,0.69
24521,-1.73
24535,0.06
24548,1.26
24561,-1.12
24575,0.85
24588,-0.04
24601,-1.52
24615,1.03
24628,1.04
24641,-2.08
24655,1.37
24668,0.79
24681,-2.17
24694,1.47
24708,0.69
24721,-2.32
24735,0.72
24748,1.65
24761,-1.52
24775,0.33
24788,0.87
24801,-1.83
24814,1.40
24828,0.53
24841,-2.16
24855,1.01
24868,1.66
24881,-1.82
24895,0.03
24908,0.85
24921,-1.61
24935,1.64
24948,0.61
24961,-2.24
24975,0.88
24988,1.58
25001,-1.83
25015,0.07
25028,0.89
25041,-1.43
25055,1.00
25068,1.28
25081,-1.87
25095,0.31
25108,0.99
25121,-1.66
25134,0.70
25148,1.21
25161,-1.68
25175,0.56
25188,1.09
25201,-1.72
25214,0.57
25228,1.12
25241,-1.70
25255,0.59
25268,1.13
25281,-1.70
25295,0.58
25308,1.12
25321,-1.70
25334,0.58
25348,1.12
25361,-1.70
25375,0.58
25388,1.12
25401,-1.70
25414,0.58
25428,1.12
25441,-1.70
25455,0.58
25468,1.12
25481,-1.70
25495,0.58
25508,1.12
25521,-1.70
25534,0.58
25548,1.12
25561,-1.70
25575,0.58
25588,1.12
25601,-1.70
25615,0.58
25628,1.12
25641,-1.70
25655,0.58
25668,1.12
25681,-1.70
25694,0.58
25708,1.12
25721,-1.70
25734,0.58
25748,1.12
25761,-1.70
25775,0.58
25788,1.12
25801,-1.70
25815,0.58
25828,1.12
25841,-1.70
25854,0.58
25868,1.12
25881,-1.70
25894,0.58
25908,1.12
25921,-1.55
25935,-0.06
25948,1.80
25961,-1.32
25975,0.02
25988,0.53
26001,-1.53
26015,1.21
26028,1.43
26041,-1.96
26055,0.13
26068,0.93
26081,-1.55
26094,0.84
26108,1.25
26121,-1.73
26134,0.47
26148,1.04
26161,-1.72
26175,0.60
26188,1.00
26201,-1.04
26214,-0.24
26228,1.38
26241,-1.82
26254,0.63
26268,2.14
26281,-2.26
26295,-0.93
26308,1.98
26321,-0.60
26334,0.14
26348,0.85
26361,-2.42
26374,0.16
26388,2.89
26401,-0.83
26415,-0.79
26428,0.23
26441,-2.44
26455,1.36
26468,2.64
26481,-1.17
26495,-0.30
26508,-0.21
26521,-1.40
26535,0.46
26548,1.46
26561,-0.88
26574,0.79
26588,1.08
26601,-2.39
26615,-1.56
26628,3.00
26641,-0.30
26654,0.28
26668,-0.03
26681,-1.37
26695,-0.65
26708,2.32
26721,-0.46
26734,-1.31
26748,1.73
26761,-1.22
26774,-0.30
26788,1.38
26801,-0.49
26814,-1.13
26828,0.91
26841,-0.46
26854,0.40
26868,1.99
26881,-2.54
26894,-1.31
26908,2.75
26921,-0.76
26935,-0.68
26948,1.93
26961,-1.77
26974,-0.88
26988,2.43
27001,-1.28
27015,-0.80
27028,2.20
27041,-1.50
27055,-0.70
27068,1.63
27081,-0.73
27094,-0.43
27108,1.56
27121,-1.38
27134,-1.34
27148,2.35
27161,0.08
27174,-1.17
27188,1.11
27201,-1.04
27215,-1.08
27228,2.07
27241,-0.27
27255,-1.08
27268,1.55
27281,-0.74
27294,-1.20
27308,1.72
27321,-0.53
27334,-1.07
27348,1.72
27361,-0.58
27374,-1.13
27388,1.84
27401,-1.23
27414,-0.45
27428,2.08
27441,-1.14
27455,-1.71
27468,1.88
27481,0.05
27494,-0.80
27508,1.45
27521,-1.03
27534,-1.31
27548,1.85
27561,-0.33
27575,-0.99
27588,1.67
27601,-0.69
27614,-1.20
27627,1.68
27641,-0.56
27654,-1.09
27668,1.72
27681,-0.57
27694,-1.12
27709,1.70
27721,-0.59
27735,-1.12
27748,1.70
27761,-0.58
27774,-0.97
27788,1.06
27801,0.10
27815,-0.74
27828,1.15
27841,-1.17
27854,-0.95
27868,2.33
27882,-0.27
27894,-1.38
27908,1.10
27923,-0.13
27934,-1.65
27948,1.42
27961,0.76
27975,-1.09
27988,0.40
28001,-0.06
28015,-0.33
28028,0.60
28041,-0.64
28055,-0.52
28068,1.24
28081,0.01
28094,-0.77
28108,1.20
28121,-1.20
28134,-1.11
28148,2.19
28162,-0.24
28174,-1.21
28188,1.40
28201,-0.74
28214,-1.05
28228,1.70
28241,0.14
28254,-1.67
28268,0.60
28281,0.61
28294,-0.15
28308,0.84
28321,-1.12
28334,-1.77
28347,1.40
28361,2.05
28374,-0.90
28388,-0.01
28401,-1.68
28414,-0.50
28427,2.06
28441,0.47
28455,-0.92
28468,-0.08
28481,0.05
28494,-1.09
28508,1.38
28521,0.36
28534,-1.20
28547,0.49
28561,0.80
28574,-1.22
28588,0.52
28601,-0.20
28614,-1.05
28628,1.87
28641,0.55
28654,-1.62
28668,-0.04
28681,0.73
28694,-0.70
28708,0.24
28721,0.68
28734,-1.37
28748,1.13
28761,1.11
28774,-2.19
28788,0.22
28801,1.06
28814,-0.87
28828,0.76
28841,0.01
28854,-1.69
28867,1.62
28881,1.54
28894,-2.59
28908,0.33
28921,0.40
28934,-1.39
28948,1.76
28961,1.74
28974,-2.28
28988,-0.43
29001,0.71
29015,-1.30
29028,1.22
29041,1.41
29054,-1.85
29067,0.27
29081,0.94
29094,-1.69
29108,0.68
29121,1.21
29134,-1.67
29169,0.57
29170,1.10
29174,-1.72
29188,0.57
29201,1.12
29214,-1.70
29228,0.58
29241,1.12
29254,-1.70
29267,0.58
29281,1.12
29294,-1.70
29308,0.58
29321,1.12
29334,-1.70
29348,0.58
29361,1.12
29374,-1.85
29388,1.23
29401,0.45
29414,-2.08
29428,1.14
29441,1.71
29454,-1.87
29468,-0.05
29481,0.81
29494,-1.44
29508,1.03
29521,1.31
29534,-1.85
29548,0.32
29561,0.99
29574,-1.67
29588,0.69
29601,1.20
29615,-1.68
29628,0.56
29641,1.09
29654,-1.72
29668,0.57
29681,1.12
29694,-1.69
29708,0.59
29721,1.12
29734,-1.70
29748,0.58
29761,1.12
29774,-1.70
29788,0.42
29801,1.76
29815,-2.38
29828,0.05
29841,2.32
29854,-1.79
29868,0.03
29881,1.05
29894,-1.27
29908,0.02
29921,1.62
29934,-1.44
29948,0.13
29961,0.73
29974,-1.47
29988,1.09
30001,1.29
30014,-2.01
30028,0.03
30041,1.66
30054,-2.18
30068,0.46
30081,1.63
30094,-0.53
30108,-0.39
30121,-0.12
30134,-0.83
30148,0.78
30161,1.05
30174,-1.56
30188,0.71
30201,0.94
30214,-2.02
30228,0.48
30241,1.18
30254,-0.79
30268,-0.02
30281,0.61
30294,-1.32
30308,1.10
30321,1.00
30334,-2.24
30348,0.32
30361,1.38
30374,-1.28
30388,0.74
30401,0.80
30414,-1.31
30428,-0.38
30441,1.27
30454,-1.06
30468,0.20
30481,0.99
30494,-0.41
30508,-0.67
30521,0.70
30534,-0.47
30548,-0.57
30561,1.06
30574,-0.03
30588,-0.64
30601,1.35
30614,-1.34
30628,-0.56
30641,1.42
30654,-0.79
30668,0.18
30681,0.87
30694,-1.24
30708,-0.07
30721,1.94
30734,-1.57
30748,-1.75
30761,2.31
30774,0.42
30788,-0.87
30801,1.08
30814,-1.31
30828,-1.30
30841,2.21
30854,-0.79
30868,-0.11
30881,1.34
30894,-0.65
30908,-1.30
30921,0.65
30934,0.17
30948,-0.05
30961,0.90
30974,-0.61
30988,-1.02
31001,1.46
31014,-0.80
31028,-0.93
31041,1.94
31054,0.21
31068,-2.02
31081,0.85
31094,0.51
31108,-1.08
31121,1.03
31134,0.73
31148,-2.23
31161,0.32
31174,2.87
31188,-2.62
31201,-1.45
31214,4.51
31228,-2.32
31241,-1.82
31254,3.08
31268,-2.32
31281,-0.59
31294,4.62
31308,-3.51
31321,-2.37
31334,5.99
31348,-3.87
31361,-3.12
31374,8.68
31388,-5.21
31401,-4.81
31414,10.03
31428,-4.53
31441,-5.70
31454,11.36
31468,-6.64
31481,-6.53
31494,13.32
31508,-4.82
31521,-7.31
31534,11.96
31548,-6.52
31561,-7.25
31574,15.17
31588,-6.66
31601,-8.57
31614,14.92
31627,-6.20
31641,-8.59
31654,14.41
31667,-6.42
31681,-8.48
31694,16.28
31708,-7.60
31721,-9.86
31734,18.26
31748,-7.95
31762,-11.02
31774,18.97
31788,-7.79
31801,-11.55
31814,18.51
31828,-5.93
31841,-11.31
31855,18.46
31868,-10.21
31881,-11.88
31894,25.58
31908,-10.27
31921,-16.03
31934,25.11
31948,-10.38
31961,-16.22
31974,27.71
31988,-10.04
32001,-17.03
32014,26.71
32028,-10.90
32041,-16.25
32054,28.00
32068,-10.78
32081,-17.14
32094,26.49
32108,-9.77
32121,-16.71
32134,27.85
32148,-10.89
32161,-17.49
32174,28.01
32188,-10.79
32201,-17.58
32214,29.28
32228,-10.79
32241,-18.33
32255,27.54
32268,-10.49
32281,-17.05
32294,29.51
32308,-10.75
32321,-19.32
32334,28.73
32348,-10.99
32361,-17.67
32374,30.11
32388,-11.81
32401,-18.51
32414,30.14
32428,-11.62
32441,-18.70
32454,29.89
32468,-11.31
32481,-18.89
32494,30.85
32508,-11.21
32521,-19.16
32534,29.34
32548,-11.42
32562,-17.66
32574,29.75
32588,-11.11
32601,-18.38
32614,28.64
32628,-11.18
32641,-18.01
32655,29.77
32668,-10.63
32681,-17.97
32694,27.71
32708,-11.10
32721,-17.25
32734,29.28
32748,-11.50
32761,-18.05
32774,29.91
32788,-11.24
32801,-19.36
32814,29.73
32828,-10.84
32841,-17.84
32854,29.80
32868,-12.22
32881,-18.60
32895,29.55
32908,-9.79
32921,-18.47
32934,28.25
32948,-11.35
32961,-16.65
32974,28.52
32988,-11.39
33001,-18.37
33014,29.49
33028,-10.71
33041,-16.96
33054,27.29
33068,-11.56
33081,-16.81
33094,29.04
33108,-10.96
33121,-17.82
33134,28.03
33148,-10.85
33161,-17.07
33174,28.45
33187,-11.09
33201,-17.51
33214,28.28
33228,-10.93
33241,-17.12
33254,27.73
33268,-10.31
33281,-16.85
33294,27.11
33308,-10.90
33321,-16.64
33334,27.77
33347,-10.57
33361,-16.74
33374,26.67
33388,-10.10
33401,-16.22
33414,26.36
33428,-10.55
33441,-15.77
33454,25.60
33468,-8.97
33481,-15.44
33495,24.70
33508,-10.97
33521,-15.30
33534,26.77
33548,-9.63
33561,-16.03
33574,25.14
33588,-10.41
33601,-15.34
33614,25.47
33628,-9.24
33641,-15.16
33654,24.45
33668,-10.13
33681,-14.99
33694,25.23
33707,-9.68
33721,-15.04
33734,24.12
33748,-9.23
33761,-14.54
33774,23.81
33788,-9.68
33801,-14.25
33814,23.69
33828,-8.77
33841,-14.14
33854,22.55
33868,-8.87
33881,-14.31
33894,22.57
33907,-7.84
33921,-12.97
33934,21.66
33947,-9.89
33961,-13.42
33974,22.35
33988,-7.66
34001,-12.65
34014,20.04
34027,-7.90
34041,-12.81
34054,19.70
34068,-7.07
34081,-10.91
34094,18.76
34108,-8.25
34121,-11.03
34134,17.12
34147,-5.44
34161,-8.99
34174,14.11
34188,-6.37
34201,-8.05
34214,14.13
34228,-5.68
34241,-7.92
34255,14.28
34268,-6.93
34281,-8.66
34294,16.50
34308,-7.40
34321,-9.16
34334,14.85
34348,-4.64
34361,-7.76
34374,11.19
34388,-5.43
34401,-5.52
34414,9.97
34428,-2.75
34441,-4.53
34454,6.62
34468,-4.54
34481,-3.28
34494,7.99
34508,-2.90
34521,-4.04
34534,6.28
34548,-2.42
34561,-3.74
34574,4.64
34588,-2.03
34601,-0.95
34614,5.11
34627,-3.59
34641,-3.46
34654,4.42
34667,-0.44
34681,-2.03
34694,4.02
34708,-2.44
34721,-2.53
34734,3.13
34748,-0.76
34761,-0.57
34774,2.24
34788,-1.69
34801,-1.36
34814,2.39
34828,-0.69
34841,-2.54
34854,2.81
34867,2.12
34881,-4.31
34894,0.20
34908,3.46
34921,-2.45
34934,-0.58
34948,3.31
34961,-4.64
34974,-0.30
34988,7.25
35001,-4.40
35015,-3.42
35028,6.66
35041,-5.01
35054,-2.88
35068,10.49
35081,-6.35
35094,-5.32
35108,11.10
35121,-5.05
35134,-6.42
35148,11.82
35161,-6.53
35174,-6.15
35188,15.27
35201,-8.54
35214,-8.94
35228,17.15
35241,-6.94
35254,-10.86
35268,18.63
35281,-8.05
35294,-11.52
35308,21.09
35321,-9.86
35334,-13.42
35347,24.48
35361,-9.95
35374,-15.09
35388,25.44
35401,-10.07
35414,-16.82
35428,27.06
35441,-10.55
35454,-16.33
35468,28.40
35481,-11.74
35494,-18.02
35508,29.18
35521,-11.17
35534,-17.83
35548,30.01
35561,-11.99
35574,-18.83
35588,30.84
35601,-12.03
35614,-19.01
35628,31.10
35641,-11.72
35654,-19.13
35668,30.70
35681,-11.93
35694,-19.11
35708,31.64
35721,-12.48
35734,-19.91
35748,33.31
35761,-13.32
35774,-20.96
35788,34.53
35801,-13.08
35814,-21.43
35828,34.25
35841,-12.96
35854,-21.40
35867,34.91
35881,-13.69
35894,-21.78
35908,35.52
35921,-13.10
35934,-22.02
35948,34.98
35961,-14.06
35974,-21.19
35988,36.36
36001,-14.44
36014,-23.00
36028,36.42
36041,-12.82
36054,-22.39
36068,36.12
36081,-14.80
36094,-22.99
36108,37.51
36121,-13.34
36134,-23.01
36148,36.59
36161,-14.80
36174,-22.26
36187,37.39
36201,-14.31
36214,-23.69
36228,37.60
36241,-13.98
36254,-23.19
36268,37.79
36281,-14.40
36294,-23.85
36308,37.56
36321,-14.03
36334,-23.43
36348,38.47
36361,-14.87
36374,-24.17
36387,38.79
36401,-14.29
36414,-24.20
36427,38.46
36441,-15.18
36454,-23.43
36467,39.73
36481,-15.62
36494,-25.25
36508,39.82
36521,-13.83
36534,-25.12
36547,39.56
36561,-14.90
36574,-25.26
36588,39.13
36601,-14.09
36615,-24.57
36628,40.40
36641,-15.28
36654,-25.86
36668,40.31
36681,-15.08
36694,-26.03
36707,41.32
36721,-13.79
36734,-26.17
36748,39.98
36761,-15.67
36774,-25.51
36788,41.96
36801,-15.50
36814,-26.29
36828,40.60
36841,-14.47
36854,-24.30
36868,38.84
36881,-14.70
36894,-24.07
36908,36.62
36921,-13.79
36934,-22.31
36948,39.82
36961,-16.13
36974,-25.93
36988,40.17
37001,-14.67
37014,-25.11
37028,41.68
37041,-16.50
37054,-26.62
37067,43.18
37081,-15.86
37094,-27.05
37108,42.65
37121,-15.94
37134,-26.86
37148,42.81
37161,-16.02
37174,-27.10
37188,46.02
37201,-20.35
37214,-29.12
37228,48.60
37241,-14.76
37254,-29.18
37268,40.39
37281,-16.81
37294,-25.07
37308,44.13
37321,-14.13
37334,-28.20
37348,39.78
37361,-14.88
37374,-25.53
37387,41.62
37401,-14.76
37414,-25.67
37427,39.78
37441,-15.18
37454,-25.09
37467,40.43
37481,-14.86
37494,-24.97
37507,39.52
37521,-14.53
37534,-24.49
37548,37.73
37561,-13.52
37574,-23.16
37588,36.68
37601,-13.80
37614,-22.84
37627,36.82
37641,-13.96
37654,-22.99
37667,36.71
37681,-13.21
37694,-23.64
37707,36.43
37721,-13.32
37734,-22.34
37747,36.69
37761,-14.66
37774,-22.65
37788,36.24
37801,-13.18
37814,-22.88
37827,36.60
37841,-12.45
37854,-24.32
37867,34.52
37881,-10.43
37894,-22.91
37908,33.19
37921,-9.20
37934,-23.89
37947,31.13
37961,-6.63
37974,-23.63
37988,29.56
38001,-5.01
38014,-24.88
38028,27.86
38041,-1.69
38054,-24.55
38068,25.54
38081,-0.76
38094,-25.74
38108,24.29
38121,3.69
38134,-25.95
38147,20.60
38161,5.55
38174,-26.37
38187,19.24
38200,9.06
38214,-28.36
38227,17.27
38241,13.00
38254,-27.92
38267,13.16
38281,9.06
38294,-19.03
38308,14.87
38321,8.62
38334,-31.91
38347,13.61
38361,22.78
38374,-26.33
38388,7.52
38401,16.02
38414,-30.11
38428,8.82
38441,23.38
38454,-27.63
38467,5.88
38481,22.28
38494,-28.71
38507,4.92
38521,23.16
38534,-29.01
38547,5.28
38561,25.66
38574,-29.41
38588,2.41
38601,26.18
38614,-27.80
38627,1.07
38641,27.11
38654,-28.13
38668,0.68
38681,27.86
38694,-28.06
38708,-1.00
38721,28.91
38734,-27.26
38748,-2.36
38761,30.23
38774,-26.18
38788,-5.13
38801,30.68
38814,-25.58
38827,-6.57
38841,33.08
38854,-24.55
38867,-9.42
38881,33.83
38894,-23.79
38908,-11.93
38921,35.65
38934,-21.56
38947,-14.88
38961,35.84
38974,-20.04
38988,-17.35
39001,38.40
39015,-20.45
39028,-18.17
39041,38.70
39055,-22.02
39067,-17.68
39081,42.33
39094,-22.65
39108,-21.99
39121,43.44
39134,-21.00
39148,-23.07
39161,45.63
39174,-22.44
39188,-25.07
39201,49.86
39214,-24.66
39228,-27.35
39241,53.04
39254,-25.22
39268,-30.04
39281,56.59
39294,-24.51
39307,-33.47
39321,57.81
39334,-24.80
39348,-34.15
39361,58.04
39374,-20.20
39388,-35.40
39401,54.26
39415,-23.03
39428,-34.23
39441,59.31
39454,-20.59
39467,-37.25
39481,58.25
39494,-25.23
39507,-35.60
39521,58.97
39534,-17.96
39548,-35.88
39561,51.98
39574,-22.00
39587,-34.21
39601,63.18
39614,-26.16
39628,-41.80
39641,69.39
39654,-25.56
39667,-45.48
39681,70.86
39694,-26.62
39707,-46.06
39721,75.53
39735,-27.88
39748,-48.92
39761,76.88
39774,-27.86
39787,-49.24
39801,75.60
39814,-25.96
39828,-48.16
39841,74.34
39854,-27.36
39868,-48.13
39881,77.01
39894,-28.07
39908,-49.70
39921,77.72
39934,-27.96
39948,-50.47
39961,79.61
39974,-29.69
39988,-52.45
40001,85.93
40014,-33.46
40027,-55.52
40041,90.24
40054,-32.86
40067,-58.01
40081,90.17
40094,-32.77
40107,-58.71
40121,93.12
40134,-33.52
40147,-60.93
40161,97.36
40174,-37.60
40188,-63.49
40201,102.68
40214,-36.82
40228,-67.00
40241,103.85
40254,-37.73
40268,-66.89
40281,107.62
40294,-40.61
40307,-70.15
40321,111.05
40334,-39.75
40348,-71.10
40361,111.15
40374,-39.66
40387,-72.77
40401,113.01
40414,-41.23
40427,-65.99
40441,88.38
40454,-13.26
40468,-45.64
40481,37.69
40494,-9.32
40508,-32.51
40521,83.45
40534,-59.79
40548,-80.80
40561,181.21
40574,-76.83
40588,-110.75
40601,148.34
40614,-18.73
40627,-88.52
40641,87.14
40654,-44.95
40667,-55.29
40681,128.32
40694,-33.50
40708,-82.24
40721,103.34
40734,-51.32
40748,-78.48
40761,149.40
40774,-56.37
40787,-98.67
40801,160.72
40814,-52.74
40828,-109.23
40841,156.66
40854,-56.20
40868,-109.21
40881,169.99
40894,-50.43
40908,-117.91
40921,171.62
40934,-57.36
40948,-122.27
40961,176.56
40974,-46.44
40988,-123.77
41001,168.32
41014,-51.27
41028,-122.48
41041,176.42
41054,-46.21
41068,-129.12
41081,174.61
41094,-47.74
41108,-131.23
41121,178.83
41134,-43.77
41147,-133.84
41161,175.12
41174,-40.35
41188,-133.48
41201,171.72
41214,-37.98
41228,-132.93
41241,170.81
41254,-37.37
41268,-136.00
41281,175.65
41294,-38.61
41308,-141.74
41321,184.25
41334,-40.41
41348,-146.30
41361,181.59
41374,-31.76
41388,-137.83
41401,151.56
41414,-14.33
41428,-117.44
41441,123.23
41454,-15.75
41468,-107.43
41481,133.03
41494,-24.91
41508,-117.38
41521,148.30
41534,-24.57
41548,-141.25
41561,197.48
41574,-69.86
41588,-175.72
41601,271.38
41614,-55.79
41628,-218.50
41641,253.79
41654,-49.58
41668,-189.00
41681,213.91
41694,-11.80
41708,-160.97
41721,154.30
41734,-23.69
41748,-126.29
41761,144.71
41774,2.34
41788,-116.15
41801,90.06
41814,1.33
41828,-81.52
41841,63.61
41854,29.74
41868,-70.61
41881,64.13
41894,-23.29
41907,-87.04
41921,120.04
41934,8.67
41948,-107.48
41961,85.41
41974,-4.84
41988,-95.98
42001,105.12
42014,8.17
42028,-99.21
42041,83.98
42054,10.85
42067,-89.93
42081,68.19
42094,19.23
42107,-79.61
42121,56.40
42134,22.54
42148,-71.84
42161,43.43
42174,30.98
42188,-62.86
42201,18.42
42214,38.43
42228,-47.22
42241,3.60
42254,43.79
42268,-41.47
42281,-1.04
42294,39.89
42308,-45.49
42321,7.84
42334,43.77
42348,-51.52
42361,1.70
42374,50.80
42388,-46.44
42401,-11.54
42414,56.63
42428,-37.63
42442,-21.12
42454,55.36
42467,-31.36
42481,-25.14
42494,57.74
42507,-30.89
42520,-31.66
42534,62.07
42547,-26.50
42561,-35.52
42574,61.24
42587,-26.11
42601,-36.97
42614,65.00
42628,-26.89
42641,-40.27
42654,69.51
42668,-30.08
42681,-43.41
42694,77.02
42707,-31.68
42721,-47.98
42734,80.59
42748,-32.39
42761,-51.14
42774,86.79
42788,-35.03
42801,-55.09
42814,91.11
42828,-34.41
42841,-57.41
42854,93.65
42867,-37.23
42881,-59.88
42894,97.49
42907,-34.68
42921,-61.27
42934,94.81
42947,-35.33
42961,-60.17
42974,95.01
42988,-32.65
43001,-60.75
43014,93.98
43028,-36.89
43041,-70.31
43054,145.07
43067,-90.90
43081,-83.27
43094,173.25
43108,-60.40
43121,-95.85
43134,137.65
43148,-41.34
43161,-90.38
43174,100.08
43187,-23.25
43200,-53.45
43214,103.54
43227,-41.95
43241,-72.48
43254,98.54
43267,-35.75
43281,-74.98
43294,156.12
43307,-90.00
43321,-103.17
43334,173.42
43347,-16.77
43361,-100.23
43374,91.58
43388,-56.77
43401,-65.30
43414,141.58
43428,-32.02
43441,-81.47
43454,104.12
43467,-46.09
43481,-72.41
43494,113.21
43508,-34.69
43521,-65.75
43534,96.97
43548,-28.75
43561,-60.41
43574,85.90
43588,-34.97
43601,-68.87
43614,148.09
43627,-88.58
43641,-99.84
43654,173.49
43667,-22.84
43681,-102.06
43694,100.50
43708,-55.36
43721,-69.33
43734,142.71
43748,-35.32
43761,-84.49
43774,112.41
43787,-49.20
43801,-77.56
43814,122.95
43828,-37.47
43841,-76.87
43854,118.50
43868,-43.60
43881,-78.20
43894,122.66
43907,-44.53
43921,-79.27
43934,122.00
43948,-42.36
43961,-77.23
43974,118.43
43987,-41.10
44001,-75.88
44014,115.25
44028,-38.92
44041,-74.92
44054,112.35
44067,-38.49
44081,-73.09
44094,112.67
44108,-39.60
44121,-73.86
44134,112.87
44147,-38.22
44161,-74.31
44174,111.98
44187,-37.42
44201,-74.16
44214,110.03
44228,-34.66
44241,-74.43
44254,107.86
44267,-33.68
44281,-73.79
44294,105.39
44308,-29.65
44321,-72.23
44334,99.06
44348,-28.33
44361,-70.01
44374,95.50
44387,-22.90
44401,-68.74
44414,88.22
44428,-20.30
44441,-66.45
44454,85.91
44467,-19.18
44481,-67.27
44494,84.62
44508,-14.38
44521,-69.49
44534,84.07
44547,-15.28
44561,-71.76
44574,84.37
44587,-7.08
44600,-75.15
44614,84.93
44628,-14.13
44641,-86.01
44654,118.46
44667,-28.42
44681,-109.92
44694,148.84
44707,-29.21
44721,-126.90
44734,153.51
44748,-25.92
44761,-138.83
44774,192.38
44787,-60.79
44801,-163.49
44814,224.90
44828,-28.25
44841,-173.73
44854,185.20
44867,-40.94
44881,-147.95
44894,174.67
44907,-2.48
44921,-124.65
44934,96.76
44947,4.93
44961,-85.60
44974,68.56
44988,13.74
45001,-65.20
45014,45.89
45027,18.10
45041,-52.89
45054,24.03
45068,25.01
45081,-40.44
45094,9.95
45107,26.80
45121,-31.57
45134,4.12
45148,28.40
45161,-28.79
45174,-0.37
45188,25.42
45201,-28.00
45214,2.16
45227,29.76
45241,-29.35
45254,-0.88
45267,28.69
45280,-30.56
45294,1.03
45307,32.38
45320,-29.97
45334,-4.08
45347,31.54
45361,-28.22
45374,-3.39
45387,33.70
45400,-28.95
45414,-6.76
45427,34.82
45440,-26.49
45454,-8.53
45467,35.63
45481,-26.99
45494,-11.19
45507,38.42
45521,-26.03
45534,-12.39
45547,39.93
45561,-26.69
45574,-16.05
45588,41.57
45601,-24.14
45614,-18.50
45627,44.27
45641,-23.10
45654,-23.73
45667,45.12
45681,-20.14
45694,-24.94
45707,44.80
45721,-18.96
45734,-26.45
45747,45.56
45761,-19.11
45774,-27.35
45787,47.72
45801,-18.93
45814,-30.17
45827,46.96
45841,-17.41
45854,-27.80
45868,48.99
45881,-21.76
45894,-31.78
45907,53.12
45921,-19.19
45934,-32.86
45947,52.73
45961,-21.09
45974,-33.46
45988,55.61
46001,-21.18
46014,-34.82
46027,56.09
46041,-21.14
46054,-35.72
46067,56.71
46081,-19.83
46094,-37.02
46107,56.55
46121,-21.20
46134,-35.12
46147,59.56
46161,-24.56
46174,-37.68
46187,61.74
46201,-22.49
46214,-39.66
46227,62.43
46240,-23.16
46254,-39.18
46267,64.06
46281,-24.76
46294,-41.91
46307,65.66
46321,-23.20
46334,-41.04
46347,67.52
46361,-27.12
46374,-45.59
46388,72.57
46401,-24.68
46414,-45.25
46427,69.49
46441,-26.71
46454,-43.83
46467,72.07
46481,-26.08
46494,-47.49
46507,72.18
46521,-25.30
46534,-45.94
46547,73.69
46561,-27.44
46574,-49.11
46587,75.88
46601,-26.79
46614,-48.19
46627,78.52
46641,-31.72
46654,-51.05
46667,83.00
46681,-28.66
46694,-53.22
46707,81.15
46721,-30.17
46734,-51.86
46747,84.08
46761,-31.05
46774,-54.84
46787,85.55
46801,-30.19
46814,-54.58
46827,84.64
46841,-29.99
46854,-54.82
46867,84.81
46881,-31.45
46894,-54.07
46907,87.77
46921,-32.05
46934,-57.44
46947,89.37
46961,-32.71
46974,-57.53
46987,91.99
47001,-33.23
47014,-59.29
47027,90.92
47041,-32.40
47054,-58.09
47067,91.40
47081,-32.20
47094,-58.19
47107,87.92
47121,-29.84
47134,-56.52
47147,82.86
47161,-26.89
47174,-51.35
47187,80.53
47201,-31.84
47214,-53.87
47227,89.16
47241,-33.39
47254,-58.78
47267,94.41
47281,-34.69
47294,-61.76
47307,95.99
47321,-33.97
47334,-61.14
47347,95.06
47360,-32.91
47374,-62.50
47387,93.36
47400,-31.45
47414,-61.27
47427,95.07
47441,-32.77
47454,-63.93
47467,94.78
47481,-30.32
47494,-63.39
47507,92.86
47521,-28.77
47534,-63.57
47547,90.39
47561,-25.91
47574,-62.16
47587,85.82
47601,-24.18
47614,-60.46
47627,81.82
47641,-18.25
47654,-59.42
47667,71.20
47681,-14.80
47694,-51.34
47707,66.42
47720,-14.00
47734,-51.84
47747,60.97
47761,-8.50
47774,-49.77
47787,58.66
47801,-9.03
47814,-52.38
47827,58.44
47840,-0.70
47854,-53.11
47867,50.46
47880,-0.78
47894,-50.29
47907,49.29
47921,4.82
47934,-50.76
47947,42.33
47961,8.06
47974,-47.34
47987,35.43
48000,11.33
48014,-43.97
48027,31.45
48041,12.56
48054,-42.85
48067,29.63
48081,12.97
48094,-42.40
48107,26.54
48121,18.24
48134,-39.88
48147,17.81
48161,18.65
48174,-35.76
48187,18.50
48200,19.43
48214,-37.63
48227,15.10
48240,22.54
48254,-35.26
48267,12.06
48280,22.70
48294,-34.29
48307,8.95
48320,25.64
48334,-32.02
48347,7.69
48361,23.75
48374,-32.59
48387,6.16
48400,27.62
48414,-32.80
48427,5.89
48441,28.06
48454,-34.07
48467,2.86
48481,30.13
48494,-30.58
48507,1.78
48520,29.59
48534,-32.45
48547,0.99
48561,31.91
48574,-32.05
48587,-0.78
48601,32.96
48614,-30.56
48627,-3.41
48641,34.14
48654,-30.66
48667,-3.60
48681,34.35
48694,-30.61
48707,-6.03
48721,37.85
48734,-30.24
48747,-7.96
48761,39.02
48774,-31.99
48787,-9.11
48801,41.44
48814,-29.54
48827,-13.25
48841,42.47
48854,-29.11
48867,-14.04
48881,44.60
48894,-29.53
48907,-17.26
48921,46.71
48934,-29.28
48947,-19.00
48961,50.35
48974,-28.72
48987,-23.83
49001,51.43
49014,-27.11
49027,-25.51
49041,54.73
49054,-29.49
49067,-28.50
49081,60.92
49094,-29.89
49107,-33.76
49121,63.50
49134,-28.86
49147,-37.11
49161,66.71
49174,-27.72
49187,-39.52
49201,66.88
49214,-27.23
49227,-40.36
49241,68.84
49254,-28.10
49267,-42.60
49281,70.58
49294,-26.86
49307,-44.03
49321,71.75
49334,-27.92
49347,-45.26
49361,73.95
49374,-28.54
49387,-46.23
49401,76.12
49414,-28.53
49427,-49.48
49441,76.93
49454,-28.49
49467,-48.45
49481,81.79
49494,-32.27
49507,-54.42
49521,86.91
49534,-32.97
49547,-55.78
49561,92.61
49574,-34.41
49587,-60.70
49600,94.59
49614,-34.21
49627,-61.56
49641,96.64
49654,-34.98
49667,-62.00
49681,99.62
49694,-37.40
49707,-65.86
49721,103.56
49734,-36.65
49747,-67.06
49761,105.41
49774,-38.36
49787,-69.65
49801,108.33
49814,-37.53
49827,-71.11
49841,109.67
49854,-39.32
49867,-71.98
49881,113.68
49894,-41.75
49907,-74.54
49921,118.06
49934,-42.32
49947,-77.22
49961,120.23
49974,-44.20
49987,-76.76
50001,122.87
50014,-44.39
50027,-80.86
50041,124.32
50054,-43.31
50067,-81.16
50081,127.35
50094,-45.76
50107,-83.83
50121,128.53
50134,-45.59
50147,-82.51
50161,131.67
50174,-48.49
50187,-86.78
50201,134.82
50214,-46.31
50227,-88.91
50241,135.87
50254,-48.26
50267,-89.03
50281,141.03
50294,-51.47
50307,-91.52
50321,142.15
50334,-50.10
50348,-94.16
50361,145.19
50374,-49.30
50387,-93.36
50401,142.73
50414,-53.05
50427,-92.94
50441,148.31
50454,-51.83
50467,-97.51
50481,148.43
50494,-51.24
50507,-97.19
50521,149.13
50534,-51.28
50547,-99.76
50561,151.35
50574,-50.33
50588,-101.96
50601,151.17
50614,-48.43
50627,-100.56
50641,149.50
50654,-50.73
50667,-101.35
50681,151.88
50694,-47.16
50707,-103.86
50721,149.04
50734,-45.12
50747,-103.30
50761,147.37
50774,-43.36
50788,-103.78
50801,146.07
50814,-41.88
50827,-103.59
50841,145.07
50854,-40.48
50867,-105.69
50881,144.75
50894,-35.99
50907,-108.78
50921,141.95
50934,-32.73
50947,-107.68
50961,139.12
50974,-30.47
50987,-108.25
51001,138.09
51014,-29.16
51027,-109.37
51041,135.34
51054,-23.44
51067,-108.74
51081,130.01
51094,-22.60
51107,-106.63
51121,126.44
51134,-17.90
51147,-104.15
51161,120.99
51174,-20.31
51187,-102.80
51201,122.97
51214,-15.73
51227,-103.78
51241,115.79
51254,-14.47
51267,-101.09
51281,114.61
51294,-11.65
51307,-100.14
51321,110.15
51334,-10.93
51347,-98.73
51361,107.77
51374,-8.53
51387,-96.70
51401,102.61
51414,-5.79
51427,-93.83
51441,98.89
51454,-6.93
51467,-93.09
51481,99.70
51494,-4.42
51507,-93.28
51521,96.10
51534,-3.54
51547,-91.79
51560,92.38
51574,0.49
51587,-90.21
51601,89.13
51614,0.02
51627,-87.95
51641,84.69
51654,4.14
51667,-85.86
51680,81.11
51694,4.82
51707,-86.43
51720,79.63
51734,6.03
51747,-84.35
51761,78.56
51774,8.28
51787,-84.20
51803,69.84
51814,13.02
51827,-78.46
51841,62.42
51854,16.32
51867,-75.48
51880,56.90
51894,17.75
51907,-71.57
51921,51.67
51934,19.32
51947,-70.25
51960,49.32
51974,22.57
51987,-69.54
52000,43.14
52014,26.74
52027,-66.29
52040,34.63
52054,32.28
52067,-62.25
52080,28.18
52094,31.98
52107,-58.54
52121,22.21
52134,38.69
52147,-55.66
52160,13.63
52174,41.42
52187,-53.20
52200,6.51
52214,47.27
52227,-49.38
52240,1.22
52255,48.29
52267,-48.05
52280,-4.84
52294,53.76
52307,-45.23
52320,-10.59
52334,54.87
52347,-43.97
52360,-13.18
52374,60.16
52387,-43.20
52400,-20.03
52413,61.97
52427,-43.45
52440,-20.37
52454,67.98
52467,-43.80
52480,-27.85
52494,69.40
52507,-40.55
52520,-30.89
52534,72.96
52547,-36.52
52560,-37.70
52574,70.45
52587,-34.73
52600,-38.52
52614,78.09
52627,-34.00
52641,-46.90
52654,78.07
52667,-31.29
52680,-47.19
52694,79.31
52707,-32.20
52720,-48.01
52734,82.39
52747,-33.88
52761,-51.14
52774,86.89
52787,-34.43
52800,-55.30
52814,88.81
52828,-32.94
52840,-55.78
52854,92.21
52867,-36.10
52880,-59.49
52894,94.80
52907,-35.63
52920,-58.25
52934,96.83
52947,-37.69
52961,-63.99
52974,100.50
52987,-34.27
53000,-63.31
53014,98.61
53027,-38.35
53041,-64.55
53054,105.51
53067,-37.54
53080,-67.56
53094,104.61
53107,-39.66
53120,-68.44
53134,111.28
53147,-40.29
53161,-69.92
53174,111.15
53187,-44.52
53200,-72.39
53214,119.67
53227,-41.64
53240,-79.03
53254,121.10
53267,-44.45
53280,-79.53
53294,126.73
53307,-45.59
53320,-82.44
53334,128.71
53347,-47.48
53360,-82.08
53374,130.65
53387,-46.17
53400,-85.76
53414,131.83
53427,-47.71
53440,-86.45
53454,137.67
53467,-49.36
53480,-90.15
53494,139.70
53507,-49.57
53520,-91.77
53534,143.47
53547,-52.59
53561,-93.38
53574,148.43
53587,-52.82
53601,-97.70
53614,150.97
53627,-54.02
53640,-98.29
53654,152.78
53667,-52.56
53680,-100.02
53694,153.97
53707,-56.46
53721,-101.42
53734,159.07
53747,-53.56
53761,-101.65
53774,151.39
53787,-52.89
53801,-99.42
53814,156.10
53827,-57.91
53841,-101.12
53854,163.34
53867,-58.93
53880,-109.86
53894,170.36
53907,-61.45
53921,-113.10
53934,179.08
53947,-62.76
53961,-118.75
53974,180.84
53987,-62.59
54001,-119.69
54014,183.76
54027,-61.94
54041,-122.96
54054,183.12
54067,-59.34
54080,-123.59
54094,183.95
54107,-60.49
54121,-125.51
54134,185.55
54147,-57.05
54161,-127.58
54174,182.06
54187,-54.90
54200,-127.09
54214,181.07
54227,-51.46
54241,-128.40
54254,177.78
54267,-49.10
54280,-129.71
54294,178.14
54307,-46.78
54321,-131.69
54334,179.17
54347,-46.09
54361,-135.94
54374,181.20
54387,-43.31
54400,-138.03
54414,181.02
54427,-41.60
54441,-140.56
54454,181.62
54467,-40.73
54480,-142.38
54494,185.61
54507,-42.03
54520,-146.99
54534,188.34
54547,-38.39
54561,-149.06
54574,187.12
54587,-40.47
54600,-148.31
54614,187.27
54627,-33.54
54641,-148.12
54654,177.44
54667,-35.23
54680,-144.33
54694,182.12
54707,-33.01
54721,-147.20
54734,178.32
54747,-33.34
54761,-146.63
54774,180.10
54787,-32.18
54801,-147.81
54814,181.26
54827,-32.70
54841,-150.04
54854,180.28
54867,-28.96
54881,-149.01
54894,179.89
54907,-33.26
54921,-151.31
54934,183.27
54947,-26.72
54961,-151.61
54974,176.70
54987,-28.43
55000,-150.75
55014,176.95
55027,-23.04
55041,-149.16
55054,169.42
55067,-20.84
55081,-144.48
55094,158.33
55107,-15.28
55121,-138.49
55134,156.53
55147,-18.36
55161,-145.87
55174,171.15
55187,-23.53
55201,-158.02
55214,185.26
55227,-19.28
55240,-167.28
55254,183.30
55267,-17.07
55281,-168.58
55294,186.34
55307,-14.35
55320,-175.06
55334,192.15
55347,-13.39
55361,-181.17
55374,186.68
55387,-1.77
55401,-178.14
55414,176.72
55427,-1.32
55440,-174.64
55454,170.12
55467,9.83
55481,-171.83
55494,156.68
55507,12.69
55521,-170.08
55534,157.30
55547,14.66
55561,-175.63
55574,161.89
55587,20.59
55601,-182.22
55614,152.98
55627,31.35
55640,-178.38
55654,140.24
55667,37.72
55681,-173.36
55694,133.69
55707,41.40
55720,-174.09
55734,124.47
55747,54.45
55760,-170.12
55774,107.01
55787,60.29
55801,-158.98
55814,88.17
55827,72.12
55840,-149.34
55854,72.90
55867,74.58
55881,-145.97
55894,64.42
55907,84.45
55921,-142.75
55934,53.63
55947,90.85
55961,-141.35
55974,43.94
55987,98.64
56001,-139.97
56014,36.11
56027,108.01
56040,-138.97
56054,22.34
56067,119.12
56081,-133.11
56094,4.84
56107,124.29
56121,-123.96
56134,-6.07
56147,137.59
56161,-117.27
56174,-35.29
56187,143.89
56200,-102.67
56214,-46.61
56227,156.30
56240,-97.53
56254,-66.80
56267,157.13
56280,-87.93
56294,-76.38
56307,171.16
56320,-82.86
56334,-93.66
56347,168.58
56360,-77.42
56374,-93.04
56387,178.84
56400,-78.50
56414,-106.38
56427,182.97
56440,-78.71
56454,-105.11
56467,182.03
56480,-75.80
56494,-100.66
56507,190.68
56521,-105.91
56534,-105.70
56547,227.08
56561,-108.26
56574,-122.12
56587,236.90
56601,-129.05
56614,-115.02
56627,245.73
56645,-121.27
56654,-129.74
56667,260.36
56680,-114.30
56694,-163.15
56707,257.58
56720,-94.60
56734,-150.09
56747,248.24
56760,-90.63
56774,-151.85
56787,223.59
56800,-71.96
56814,-147.68
56827,231.51
56840,-97.49
56854,-157.22
56867,274.89
56880,-95.98
56894,-182.38
56907,277.96
56921,-107.31
56934,-187.52
56947,292.39
56960,-84.97
56974,-191.70
56987,270.11
57000,-92.37
57014,-184.17
57027,281.30
57040,-87.79
57054,-190.39
57067,272.74
57080,-85.74
57094,-186.91
57107,271.24
57120,-81.74
57134,-187.09
57147,267.06
57160,-79.69
57174,-186.98
57187,265.71
57200,-78.16
57214,-186.07
57227,258.18
57240,-69.56
57254,-186.08
57267,260.88
57280,-78.31
57294,-189.80
57307,258.28
57320,-54.90
57334,-186.25
57347,241.93
57360,-76.43
57374,-184.00
57387,266.34
57400,-60.84
57414,-195.06
57427,260.49
57440,-83.96
57454,-199.10
57467,284.14
57480,-62.76
57494,-205.21
57507,261.00
57520,-70.16
57534,-199.66
57547,273.58
57560,-64.94
57574,-203.42
57587,264.60
57600,-64.24
57614,-200.64
57627,265.31
57640,-64.50
57654,-202.39
57667,265.04
57680,-59.15
57694,-201.64
57707,260.03
57720,-62.75
57734,-200.01
57747,262.32
57760,-57.60
57774,-192.72
57787,222.20
57800,-23.18
57814,-171.39
57827,197.71
57840,-55.15
57854,-164.95
57867,230.45
57880,-35.32
57894,-178.58
57907,202.34
57920,-44.79
57934,-167.83
57947,213.98
57960,-35.31
57974,-168.75
57987,203.79
58000,-36.84
58014,-171.34
58027,209.87
58040,-41.74
58054,-172.76
58067,209.48
58080,-26.20
58094,-172.71
58107,206.42
58120,-49.57
58134,-177.95
58147,225.71
58160,-24.22
58174,-180.68
58187,197.12
58200,-35.91
58214,-171.95
58227,209.56
58240,-24.79
58254,-174.71
58267,195.61
58280,-25.38
58294,-173.66
58307,198.70
58320,-22.73
58334,-178.69
58347,201.33
58360,-18.30
58374,-180.99
58387,194.31
58400,-12.11
58414,-178.19
58427,185.46
58440,-9.07
58454,-176.16
58467,185.42
58480,-2.82
58494,-188.31
58507,200.86
58520,-9.47
58534,-233.82
58547,281.91
58560,-33.78
58574,-291.08
58587,327.93
58600,-1.35
58614,-326.94
58627,337.51
58640,-35.83
58654,-351.33
58667,394.07
58680,13.56
58694,-371.72
58707,329.23
58720,10.63
58734,-339.05
58747,319.49
58760,30.05
58774,-339.88
58787,317.67
58800,22.17
58814,-358.01
58827,338.09
58840,39.01
58854,-378.72
58867,321.23
58880,51.89
58894,-348.84
58907,270.30
58920,82.07
58934,-297.77
58947,164.60
58960,113.49
58974,-238.85
58987,140.52
59000,72.46
59014,-242.12
59027,167.40
59040,115.85
59054,-252.67
59067,120.46
59080,102.70
59094,-244.53
59107,139.25
59120,131.38
59134,-248.98
59147,112.77
59160,131.10
59174,-253.87
59187,116.49
59200,143.50
59214,-268.02
59227,128.37
59240,154.21
59254,-285.38
59267,123.68
59280,162.95
59294,-277.48
59307,94.18
59321,186.52
59334,-260.26
59347,65.92
59360,183.20
59374,-246.24
59387,58.14
59400,199.74
59414,-242.79
59427,26.71
59440,207.36
59454,-227.45
59467,10.24
59480,222.34
59494,-217.01
59507,-11.31
59520,227.66
59534,-221.73
59547,-13.36
59560,240.36
59574,-215.43
59587,-36.92
59600,254.42
59614,-198.77
59627,-73.34
59640,263.19
59654,-180.08
59667,-92.59
59680,280.32
59694,-175.84
59707,-102.49
59720,270.48
59734,-180.17
59747,-100.96
59760,298.15
59774,-175.70
59787,-136.23
59800,301.11
59814,-162.74
59827,-142.92
59840,312.06
59854,-163.40
59867,-156.72
59880,322.55
59894,-152.15
59907,-183.62
59920,329.95
59933,-138.03
59947,-201.61
59960,340.35
59974,-123.26
59987,-217.75
60000,335.15
60014,-122.25
60027,-220.11
60040,350.00
60054,-118.90
60067,-237.06
60080,351.23
60094,-111.73
60107,-241.87
60120,355.25
60134,-111.19
60147,-249.35
60161,362.21
60174,-107.59
60187,-255.51
60200,360.62
60214,-105.90
60227,-256.74
60240,364.24
60254,-104.93
60267,-260.29
60280,365.20
60294,-104.30
60307,-262.44
60320,364.03
60333,-98.74
60347,-263.07
60360,364.10
60374,-104.18
60387,-266.44
60400,371.90
60414,-100.00
60427,-269.98
60440,370.96
60454,-104.15
60467,-271.22
60480,375.03
60493,-99.99
60507,-275.09
60520,378.19
60534,-103.14
60547,-280.45
60560,383.33
60574,-100.41
60587,-282.31
60600,382.74
60613,-99.58
60627,-282.61
60640,378.29
60653,-95.98
60667,-279.61
60680,374.79
60693,-94.21
60707,-278.71
60720,370.41
60734,-92.27
60747,-277.69
60760,367.45
60774,-87.86
60787,-274.78
60800,359.12
60813,-86.24
60827,-269.75
60840,348.13
60854,-73.84
60867,-263.16
60880,330.50
60894,-75.03
60907,-255.42
60920,330.11
60934,-68.75
60947,-252.85
60960,315.48
60973,-69.62
60987,-245.74
61000,314.58
61013,-63.69
61027,-246.26
61040,305.41
61053,-62.41
61067,-241.60
61080,302.05
61093,-57.07
61107,-240.86
61120,294.32
61133,-55.75
61147,-239.31
61160,294.33
61174,-52.05
61187,-240.87
61200,290.90
61213,-47.05
61227,-242.60
61240,281.89
61253,-39.80
61267,-237.76
61280,278.03
61293,-38.13
61307,-236.87
61320,262.57
61333,-23.67
61347,-225.75
61360,243.16
61374,-23.26
61387,-216.46
61400,235.57
61414,-15.26
61427,-213.46
61440,221.72
61454,-8.03
61467,-208.18
61480,206.01
61493,1.59
61507,-195.38
61521,186.05
61533,8.91
61547,-187.01
61560,169.77
61574,15.13
61587,-179.98
61600,165.10
61613,16.54
61627,-184.97
61640,164.27
61653,27.34
61667,-190.04
61680,161.42
61693,27.44
61707,-194.49
61720,163.76
61733,40.12
61747,-196.21
61760,151.96
61773,39.68
61787,-194.33
61800,141.78
61813,64.84
61827,-189.93
61840,120.09
61853,59.96
61867,-186.58
61880,123.70
61893,75.26
61907,-189.23
61920,103.21
61933,82.37
61947,-181.73
61960,92.45
61974,93.61
61987,-178.95
62000,79.57
62014,100.01
62027,-177.48
62040,69.57
62054,111.52
62067,-174.18
62080,56.00
62094,120.27
62107,-172.40
62120,42.85
62134,131.04
62147,-168.46
62160,35.46
62173,138.03
62187,-179.13
62200,36.32
62213,149.70
62227,-189.53
62240,42.78
62253,152.27
62267,-203.22
62280,40.39
62293,175.83
62307,-203.18
62320,15.46
62334,180.68
62347,-195.60
62360,12.03
62374,194.34
62387,-201.51
62400,-2.32
62414,203.89
62427,-197.80
62440,-14.59
62454,217.68
62467,-194.77
62480,-32.48
62494,225.96
62507,-189.92
62520,-41.78
62534,238.16
62547,-190.53
62560,-54.07
62574,243.34
62587,-186.33
62600,-69.12
62613,263.65
62627,-183.35
62640,-87.46
62654,267.42
62667,-183.40
62680,-86.77
62693,282.69
62707,-193.01
62720,-102.30
62733,296.68
62747,-186.06
62760,-121.09
62773,314.84
62787,-195.75
62800,-112.08
62813,304.06
62827,-217.73
62840,-83.14
62854,334.88
62867,-236.38
62880,-119.37
62894,337.10
62907,-224.61
62920,-117.21
62933,358.53
62947,-220.20
62960,-144.31
62973,358.41
62987,-218.42
63000,-152.14
63013,375.22
63027,-211.86
63040,-171.59
63053,387.88
63067,-207.73
63080,-190.03
63094,390.25
63107,-189.53
63120,-206.17
63134,400.87
63147,-179.72
63160,-254.16
63174,420.45
63187,-119.79
63200,-285.45
63213,375.19
63227,-111.86
63240,-264.04
63254,388.51
63267,-105.34
63280,-275.97
63293,370.62
63307,-106.42
63320,-267.72
63333,369.73
63347,-94.44
63360,-260.92
63374,348.79
63387,-92.77
63400,-262.08
63414,378.49
63427,-125.70
63440,-288.58
63453,433.90
63467,-120.74
63480,-315.12
63493,424.11
63507,-114.55
63520,-309.12
63533,422.28
63547,-111.86
63560,-310.28
63573,433.83
63587,-124.61
63600,-318.85
63614,431.03
63627,-99.26
63640,-297.90
63654,350.55
63667,-59.20
63680,-241.68
63694,270.21
63707,-47.96
63720,-197.54
63734,246.83
63747,-53.26
63760,-190.08
63774,241.11
63787,-52.07
63800,-189.94
63814,241.76
63827,-53.33
63840,-194.68
63854,259.43
63867,-62.44
63880,-205.64
63894,266.39
63907,-51.80
63920,-209.93
63934,254.56
63947,-52.27
63960,-201.19
63973,250.78
63987,-41.79
64000,-195.80
64013,225.18
64027,-35.73
64040,-172.64
64054,178.86
64066,-1.03
64080,-132.46
64093,99.04
64107,15.14
64120,-73.53
64133,18.89
64147,55.59
64160,-31.31
64174,-18.10
64187,11.49
64200,-23.92
64213,27.91
64227,33.09
64240,-66.23
64253,75.55
64267,-47.78
64280,-95.08
64293,109.70
64307,72.28
64320,-71.47
64333,-50.90
64347,24.86
64360,-3.74
64373,5.45
64387,40.48
64400,-18.10
64413,-22.53
64427,26.44
64440,-18.88
64453,-21.33
64466,34.22
64480,-7.48
64493,-15.25
64507,32.53
64520,-15.07
64533,-21.60
64547,32.50
64560,-13.93
64573,-21.52
64587,36.43
64600,-14.15
64613,-21.56
64627,39.28
64640,-17.09
64653,-24.14
64667,43.93
64680,-23.73
64694,-24.33
64707,52.72
64720,-25.99
64733,-29.15
64747,54.71
64760,-23.43
64773,-31.41
64786,48.99
64800,-14.64
64814,-27.11
64827,35.54
64840,-11.36
64853,-19.97
64867,31.98
64880,-13.31
64893,-19.32
64907,31.36
64920,-11.43
64933,-17.26
64947,28.91
64960,-12.19
64974,-15.58
64987,18.62
65000,-0.53
65013,-6.05
65027,-0.03
65040,1.85
65053,2.09
65067,-2.68
65080,-2.41
65093,2.75
65107,1.28
65120,-0.50
65133,0.60
65147,-1.23
65160,-2.30
65173,1.73
65187,0.69
65200,-0.10
65213,1.53
65227,-1.44
65240,-1.52
65253,1.18
65266,0.53
65280,-0.50
65293,1.07
65307,-1.36
65320,-1.05
65333,2.36
65347,-0.17
65360,-1.32
65373,1.25
65387,-0.81
65400,-1.01
65413,1.94
65427,-0.44
65440,-0.98
65453,0.81
65467,0.67
65480,-1.43
65493,0.63
65507,0.06
65520,-0.87
65533,0.98
65547,0.98
65560,-1.40
65573,0.40
65587,-0.98
65600,-0.34
65613,2.36
65627,0.08
65640,-2.34
65653,0.91
65667,0.01
65680,-0.27
65693,1.56
65707,-0.57
65720,-2.21
65733,1.35
65747,1.07
65760,-0.99
65773,0.87
65788,-0.26
65800,-1.66
65813,1.28
65826,0.55
65840,-1.25
65853,1.12
65867,0.32
65880,-2.14
65893,1.79
65907,0.66
65920,-1.79
65933,-0.07
65947,1.13
65960,-0.40
65973,0.89
65987,-0.42
66000,-2.33
66013,2.25
66027,1.26
66040,-2.61
66053,0.91
66066,0.60
66080,-1.30
66093,1.05
66107,0.30
66120,-1.09
66133,0.54
66147,0.93
66160,-1.73
66173,0.58
66186,0.88
66200,-1.10
66213,0.04
66227,0.94
66240,-1.07
66253,1.05
66267,0.60
66280,-1.79
66293,-0.37
66307,1.11
66320,-0.60
66333,1.38
66347,0.77
66360,-2.63
66373,0.10
66386,1.24
66400,-0.50
66413,0.19
66427,0.62
66440,-1.41
66453,1.01
66467,0.96
66480,-2.23
66493,0.34
66506,1.40
66520,-1.27
66533,0.74
66546,0.96
66560,-1.96
66573,0.45
66586,1.16
66600,-1.59
66613,0.66
66626,1.14
66640,-1.72
66653,0.55
66667,1.10
66680,-1.71
66693,0.58
66707,1.13
66720,-1.70
66733,0.58
66747,0.97
66760,-1.05
66773,-0.09
66787,0.74
66800,-1.15
66813,1.16
66826,0.95
66840,-2.33
66853,0.27
66867,1.22
66880,-0.61
66893,-0.06
66907,1.24
66920,-2.08
66933,0.50
66946,2.18
66960,-2.31
66973,-0.21
66987,1.17
67000,-0.36
67013,-0.01
67027,1.04
67040,-2.21
67053,0.76
67067,1.74
67080,-1.57
67093,-0.09
67106,1.27
67120,-2.31
67133,0.52
67146,2.69
67160,-1.81
67173,-0.41
67186,1.45
67200,-2.15
67213,0.39
67226,1.63
67240,-1.17
67253,0.51
67266,0.65
67280,-1.99
67293,0.55
67307,1.91
67320,-1.44
67333,-1.36
67346,2.45
67360,-0.78
67373,-0.71
67387,1.53
67400,-1.33
67413,-1.43
67426,2.24
67440,0.16
67453,-0.95
67467,1.40
67480,-1.76
67493,-0.60
67507,2.31
67520,-0.82
67533,-1.56
67547,1.52
67560,1.21
67573,-2.25
67587,-0.58
67600,5.26
67613,-5.50
67627,-3.98
67640,13.20
67653,-7.71
67667,-8.84
67680,18.92
67693,-9.46
67707,-12.40
67720,23.33
67733,-10.24
67747,-14.86
67760,26.57
67773,-11.34
67787,-16.72
67800,28.63
67813,-11.24
67827,-17.74
67840,29.04
67853,-11.51
67867,-18.05
67880,30.06
67893,-11.79
67907,-18.20
67920,28.93
67933,-10.10
67947,-17.51
67960,27.44
67973,-11.45
67986,-17.43
68000,30.95
68014,-12.73
68027,-19.52
68040,32.81
68053,-12.79
68067,-20.62
68082,33.29
68093,-12.90
68106,-21.10
68120,35.64
68133,-14.58
68146,-29.82
68160,67.77
68173,-45.47
68186,-42.58
68200,68.42
68213,7.55
68227,-34.96
68240,15.18
68253,-25.92
68266,-14.44
68280,56.37
68293,-7.51
68307,-29.97
68320,29.90
68333,-19.96
68346,-23.60
68360,42.50
68373,-10.90
68387,-23.81
68400,38.29
68413,-15.30
68427,-25.43
68440,38.50
68453,-14.73
68467,-24.59
68480,40.75
68493,-14.19
68507,-26.44
68520,39.81
68533,-14.75
68547,-25.07
68560,41.96
68573,-16.85
68587,-26.92
68600,45.44
68613,-18.31
68627,-28.98
68640,46.49
68653,-16.93
68667,-29.74
68680,50.44
68693,-20.97
68707,-32.55
68720,49.81
68733,-13.92
68747,-29.23
68760,40.73
68773,-17.12
68787,-25.90
68800,44.89
68813,-14.63
68827,-27.69
68840,40.09
68853,-14.40
68867,-25.54
68880,38.65
68893,-14.23
68907,-23.31
68920,39.51
68933,-14.93
68946,-24.68
68960,38.29
68974,-14.76
68987,-23.41
69000,37.33
69013,-13.76
69026,-22.45
69040,37.32
69054,-14.16
69067,-23.81
69080,36.30
69093,-13.63
69107,-22.13
69120,36.62
69133,-13.45
69147,-21.99
69160,34.04
69174,-13.53
69187,-20.86
69200,35.15
69213,-12.83
69227,-21.76
69240,33.03
69253,-12.44
69267,-19.58
69280,32.79
69293,-13.36
69307,-20.02
69320,32.76
69333,-11.60
69347,-19.60
69360,30.01
69373,-12.85
69387,-17.48
69400,31.77
69413,-11.93
69427,-19.62
69440,30.31
69453,-12.11
69466,-18.72
69480,30.65
69493,-10.82
69507,-18.27
69520,28.85
69533,-11.51
69547,-17.29
69560,28.46
69573,-11.62
69587,-17.05
69600,29.12
69613,-10.11
69627,-18.79
69640,27.01
69653,-9.76
69667,-16.65
69680,27.36
69693,-9.09
69707,-18.26
69720,25.66
69733,-8.09
69747,-17.32
69760,25.44
69773,-7.13
69787,-17.55
69800,23.56
69813,-5.88
69827,-16.95
69840,21.07
69853,-4.71
69867,-15.20
69880,20.63
69893,-4.29
69907,-16.42
69920,18.23
69933,-1.30
69947,-16.34
69960,15.94
69973,1.59
69987,-15.66
70000,13.79
70013,1.72
70027,-16.28
70040,11.73
70053,5.95
70066,-15.95
70080,9.23
70093,8.60
70107,-16.76
70120,4.01
70133,12.12
70147,-15.02
70160,2.81
70173,14.95
70186,-16.13
70200,-3.43
70213,18.85
70226,-13.29
70239,-6.57
70253,21.73
70266,-14.56
70280,-9.82
70293,24.69
70307,-13.47
70320,-12.65
70333,26.77
70347,-13.14
70360,-14.64
70373,27.69
70386,-12.72
70400,-15.12
70413,28.09
70426,-13.06
70440,-16.21
70453,30.59
70467,-13.49
70480,-18.61
70493,31.88
70507,-12.63
70520,-18.97
70533,31.31
70546,-12.63
70560,-18.77
70573,32.11
70587,-13.29
70600,-19.98
70613,33.32
70627,-12.22
70640,-20.78
70653,32.74
70667,-13.09
70680,-20.47
70693,34.72
70707,-13.22
70720,-21.60
70733,34.20
70747,-12.94
70760,-21.39
70774,34.90
70787,-13.69
70800,-21.75
70813,35.55
70827,-13.09
70840,-22.19
70853,35.44
70867,-14.11
70880,-22.25
70893,36.54
70907,-13.29
70920,-22.73
70933,36.42
70947,-15.08
70960,-22.16
70973,37.91
70987,-14.78
71000,-23.19
71013,37.68
71027,-14.65
71040,-23.66
71053,38.15
71066,-13.69
71080,-23.57
71093,37.37
71107,-15.18
71120,-22.95
71133,39.02
71147,-15.15
71160,-24.76
71173,39.57
71186,-14.45
71200,-24.82
71213,40.67
71227,-17.05
71240,-25.37
71253,42.88
71267,-15.94
71280,-27.13
71293,42.60
71307,-15.62
71320,-27.39
71333,44.19
71347,-16.41
71360,-27.77
71373,41.40
71387,-13.65
71400,-24.38
71413,36.95
71426,-12.82
71440,-22.96
71453,33.26
71467,-10.45
71480,-20.37
71493,29.94
71507,-10.61
71520,-17.66
71533,26.84
71546,-9.24
71560,-13.71
71573,16.03
71586,-1.06
71600,-5.50
71613,-0.88
71627,2.18
71640,2.73
71653,-1.71
71666,-3.13
71680,1.26
71693,3.15
71706,-0.91
71720,0.13
71733,-1.50
71747,-2.31
71760,1.84
71773,1.73
71786,-0.39
71800,0.24
71813,0.09
71827,-1.67
71840,0.52
71853,0.01
71866,-0.75
71880,1.26
71893,1.21
71907,-1.39
71920,0.06
71933,-0.37
71947,-1.57
71960,2.06
71973,1.93
71986,-2.52
72000,0.12
72013,-0.03
72026,-0.87
72040,1.13
72053,1.49
72066,-1.78
72080,0.82
72093,-0.17
72106,-2.51
72120,2.08
72133,1.57
72147,-2.10
72160,1.05
72173,0.24
72186,-1.60
72200,0.25
72213,1.33
72226,-1.23
72240,1.44
72253,-0.15
72266,-1.96
72280,0.41
72293,1.70
72306,-1.12
72320,1.21
72333,-0.42
72347,-2.02
72360,0.39
72373,2.51
72386,-1.58
72400,0.15
72413,0.90
72426,-1.75
72439,0.33
72453,1.68
72466,-2.26
72480,0.30
72493,2.49
72506,-1.86
72520,-0.34
72533,1.53
72546,-2.11
72560,0.38
72573,1.60
72586,-1.19
72600,0.50
72613,0.65
72626,-1.99
72640,0.71
72653,1.42
72666,-1.56
72680,0.34
72695,1.60
72706,-2.45
72719,0.08
72733,2.25
72746,-1.09
72760,-0.80
72773,1.29
72786,-1.57
72800,0.70
72813,1.97
72826,-2.53
72840,-0.17
72853,1.51
72867,-0.92
72880,0.58
72893,1.29
72906,-2.81
72920,0.23
72933,1.99
72946,-0.90
72960,0.22
72973,0.98
72986,-2.79
73000,0.47
73013,2.19
73026,-0.88
73040,0.27
73053,0.22
73066,-2.17
73080,0.71
73093,2.32
73106,-2.10
73120,-0.08
73133,1.89
73146,-1.31
73160,-0.64
73173,0.61
73186,-0.14
73200,0.45
73213,1.02
73226,-2.44
73239,-0.24
73253,3.11
73266,-0.73
73280,-2.24
73293,1.37
73306,-0.70
73320,0.25
73333,2.34
73346,-2.34
73360,-0.61
73373,1.06
73387,-0.80
73400,1.21
73413,0.90
73426,-2.30
73440,0.13
73453,1.78
73466,-1.26
73480,-0.98
73493,1.90
73507,-0.31
73520,0.21
73533,0.23
73546,-2.30
73560,-0.67
73573,3.64
73586,-0.48
73600,-0.51
73613,0.18
73626,-2.15
73640,-0.07
73653,2.46
73666,-0.21
73680,-1.02
73693,1.43
73707,-1.12
73720,-1.49
73733,1.80
73746,-0.15
73760,-0.76
73773,1.72
73786,-0.81
73800,-1.36
73813,1.62
73826,-0.51
73840,-0.85
73853,1.13
73866,0.10
73880,-0.77
73893,1.11
73907,-1.18
73920,-0.95
73933,2.33
73946,-0.57
73960,-0.09
73973,-0.09
73986,-1.53
74000,0.14
74013,3.13
74026,-0.79
74040,-2.41
74053,0.96
74066,-0.15
74080,-0.24
74093,1.95
74106,-0.35
74120,-1.64
74133,0.23
74146,0.31
74160,-0.44
74173,1.89
74186,-0.79
74200,-1.52
74213,1.41
74226,-0.54
74240,-0.81
74253,2.01
74266,-0.52
74280,-1.31
74293,1.46
74306,-0.69
74320,-1.07
74333,1.83
74346,-0.48
74360,-1.10
74373,1.51
74386,0.01
74400,-1.83
74413,1.16
74426,0.63
74440,-1.19
74453,1.01
74466,0.00
74480,-1.52
74493,1.40
74506,-0.05
74520,-1.31
74533,2.15
74546,0.01
74560,-2.61
74573,0.72
74586,1.10
74600,-0.29
74613,0.57
74626,0.24
74640,-1.68
74653,0.53
74666,0.08
74680,-0.85
74693,1.87
74706,0.44
74720,-1.85
74733,0.59
74746,0.08
74760,-1.21
74773,0.83
74786,3.01
74800,-4.14
74813,-2.35
74826,10.14
74840,-7.19
74853,-8.89
74867,24.44
