Time (ms),EMG Value
2002,27.14
2015,-9.10
2029,-16.97
2042,26.55
2055,-10.03
2069,-16.78
2082,26.44
2095,-9.22
2109,-16.87
2122,26.15
2135,-9.53
2149,-18.09
2162,27.89
2175,-8.64
2189,-17.24
2202,25.02
2215,-9.81
2229,-16.21
2242,27.22
2255,-10.09
2269,-17.04
2282,26.45
2295,-9.05
2309,-16.86
2322,25.95
2335,-9.56
2349,-18.57
2362,27.93
2375,-6.95
2389,-17.56
2402,23.41
2415,-10.79
2429,-14.69
2442,28.97
2455,-9.58
2469,-19.52
2482,24.92
2495,-8.78
2509,-14.14
2522,26.54
2535,-11.14
2549,-17.82
2562,26.43
2575,-8.36
2589,-15.95
2602,25.65
2615,-10.27
2629,-16.82
2642,26.30
2655,-9.17
2669,-16.17
2682,25.23
2695,-8.38
2709,-16.78
2722,24.45
2735,-8.73
2749,-15.83
2762,26.03
2775,-9.38
2789,-16.94
2802,24.86
2815,-9.37
2829,-14.28
2842,25.36
2856,-10.25
2869,-16.07
2882,25.04
2895,-9.54
2909,-15.73
2922,25.92
2935,-8.82
2949,-16.38
2962,25.36
2975,-10.83
2989,-16.35
3002,27.88
3015,-9.22
3029,-17.94
3042,26.02
3055,-10.20
3069,-16.05
3082,28.57
3095,-10.39
3109,-19.00
3122,26.13
3135,-8.65
3149,-16.30
3162,27.94
3175,-10.21
3189,-18.34
3202,25.62
3215,-9.29
3229,-14.81
3242,26.74
3255,-11.30
3269,-16.75
3282,25.96
3295,-8.41
3309,-16.72
3322,25.46
3335,-9.00
3349,-16.16
3362,24.16
3375,-8.31
3389,-15.59
3402,24.96
3415,-8.99
3429,-16.17
3442,23.74
3456,-7.77
3469,-15.99
3482,24.92
3495,-8.55
3509,-15.23
3522,22.76
3535,-9.62
3549,-14.25
3562,25.67
3575,-8.99
3589,-16.40
3602,23.79
3615,-9.49
3629,-13.82
3642,23.85
3655,-8.23
3669,-15.35
3682,22.59
3695,-9.01
3709,-13.31
3722,22.93
3735,-8.53
3749,-13.67
3762,21.73
3775,-9.18
3789,-14.04
3802,24.33
3815,-9.43
3829,-14.53
3842,23.81
3855,-8.94
3869,-15.99
3882,24.27
3895,-7.65
3909,-15.58
3922,22.81
3935,-7.80
3949,-14.40
3962,22.30
3975,-9.12
3989,-13.33
4002,24.06
4015,-9.71
4029,-15.46
4042,22.36
4055,-5.80
4069,-14.37
4082,21.65
4095,-9.70
4109,-15.18
4122,27.45
4135,-10.02
4149,-17.41
4162,24.52
4175,-7.49
4189,-14.70
4202,22.88
4215,-9.24
4229,-14.70
4242,22.93
4255,-6.21
4269,-16.20
4282,22.25
4295,-7.80
4309,-13.63
4322,23.20
4335,-10.10
4349,-14.75
4362,23.36
4375,-7.58
4389,-13.83
4402,21.81
4415,-8.13
4429,-14.09
4442,21.51
4455,-8.82
4469,-12.49
4482,22.04
4496,-7.81
4509,-14.12
4522,21.12
4535,-7.93
4549,-14.04
4562,21.88
4575,-5.99
4589,-12.96
4602,17.42
4615,-8.99
4629,-10.61
4642,23.06
4655,-6.48
4669,-16.03
4682,16.78
4695,-5.52
4709,-8.19
4722,16.22
4735,-5.47
4749,-10.26
4762,14.28
4775,-8.26
4789,-9.88
4802,22.90
4815,-8.45
4829,-13.61
4842,19.80
4855,-8.32
4869,-12.48
4882,20.17
4895,-6.19
4909,-12.49
4922,18.03
4935,-5.72
4949,-11.02
4962,16.00
4975,-6.12
4989,-10.33
5002,17.12
5015,-6.17
5029,-9.98
5042,15.29
5055,-6.32
5068,-9.94
5082,16.67
5095,-4.48
5109,-10.03
5122,11.03
5135,-3.06
5149,-5.22
5162,8.66
5175,-4.88
5189,-6.76
5202,19.76
5215,-13.84
5229,-14.58
5243,26.90
5255,-4.28
5269,-15.46
5282,16.33
5295,-9.16
5309,-11.41
5322,22.63
5335,-5.60
5349,-13.12
5362,18.62
5375,-7.27
5389,-13.71
5402,17.54
5415,-4.60
5429,-10.24
5442,18.24
5455,-7.56
5469,-11.59
5482,16.93
5495,-5.64
5509,-10.16
5522,15.74
5535,-6.55
5549,-8.52
5562,15.20
5575,-5.88
5589,-9.40
5602,14.66
5615,-5.28
5629,-10.02
5642,15.35
5655,-5.05
5669,-10.00
5682,16.00
5695,-6.29
5709,-10.45
5722,16.22
5735,-5.55
5749,-11.20
5762,17.42
5775,-5.52
5789,-10.77
5802,15.79
5815,-7.25
5828,-9.58
5842,18.07
5855,-6.14
5868,-11.00
5882,14.41
5895,-4.30
5909,-8.82
5922,12.49
5935,-3.67
5949,-6.36
5962,7.98
5975,-1.27
5989,-5.85
6002,5.30
6015,-1.49
6028,-0.45
6042,2.24
6055,-0.77
6069,-1.98
6082,1.01
6095,-0.61
6109,-3.28
6122,16.64
6135,-17.07
6149,-12.15
6162,28.20
6175,-2.60
6189,-15.39
6202,9.63
6215,-6.01
6228,-4.53
6242,6.15
6255,7.22
6269,0.34
6282,-5.16
6295,-7.99
6309,0.68
6322,12.88
6335,-5.78
6348,-8.84
6362,18.81
6375,-10.53
6389,-12.56
6402,17.96
6415,-1.57
6429,-9.69
6442,10.25
6455,-5.40
6469,-6.74
6482,10.25
6495,0.40
6509,-4.41
6522,3.47
6535,-3.59
6548,-3.99
6562,7.86
6575,-1.25
6589,-2.48
6602,2.99
6615,-2.57
6629,-2.80
6642,5.83
6655,-1.52
6669,-3.32
6682,4.32
6695,-1.18
6709,-3.57
6722,6.69
6735,-5.76
6748,-2.50
6762,9.07
6775,-3.11
6789,-5.21
6802,6.39
6815,-2.58
6829,-4.14
6842,5.94
6855,-0.62
6869,-2.63
6882,3.59
6895,-3.58
6909,-2.02
6922,6.74
6935,-2.02
6949,-4.50
6962,3.82
6975,0.37
6989,-3.85
7002,6.36
7015,-3.86
7029,-3.97
7042,7.89
7055,-3.17
7069,-3.47
7082,5.16
7095,-2.23
7109,-2.44
7122,5.51
7135,-2.35
7149,-4.93
7162,6.64
7175,-1.23
7189,-3.86
7202,4.78
7215,-1.55
7229,-3.03
7242,4.29
7255,-1.48
7268,-2.18
7282,3.47
7295,-1.81
7309,-2.09
7322,4.80
7335,-1.33
7348,-3.12
7362,2.89
7375,-2.72
7389,-0.43
7402,7.11
7415,-3.33
7429,-5.13
7442,3.29
7455,-0.61
7469,0.01
7482,5.25
7495,-4.08
7509,-3.44
7522,3.90
7535,-1.19
7548,-1.27
7562,5.07
7575,-3.28
7588,-3.45
7602,5.88
7615,-1.25
7628,-3.43
7642,2.12
7655,-1.04
7669,0.38
7682,4.50
7695,-2.98
7709,-3.50
7722,2.03
7735,-0.16
7749,0.72
7762,3.20
7775,-2.54
7789,-3.51
7802,3.27
7815,-0.41
7829,-0.34
7842,1.46
7855,-0.10
7869,-2.25
7882,2.27
7895,-1.56
7908,-2.20
7922,5.06
7935,-0.39
7949,-3.82
7962,2.25
7975,-0.07
7989,-1.38
8002,2.21
8015,-1.07
8029,-1.28
8042,2.20
8055,-0.24
8069,-1.59
8082,1.79
8095,-1.25
8108,-1.96
8122,3.99
8135,-0.02
8148,-3.22
8162,2.27
8175,-1.17
8188,-0.93
8202,3.89
8215,-3.32
8228,-1.30
8242,4.85
8255,-2.28
8268,-2.63
8282,2.91
8295,-0.21
8308,-1.58
8322,2.24
8335,-1.06
8348,-1.60
8362,2.70
8375,-1.17
8389,-0.33
8402,0.65
8415,-1.58
8428,0.70
8442,2.78
8455,-0.90
8468,-4.16
8482,1.65
8495,2.25
8508,-0.81
8522,1.16
8535,-1.97
8549,-1.57
8562,3.91
8575,-1.55
8589,-1.78
8602,2.18
8615,-0.68
8628,-0.21
8642,1.46
8655,-1.82
8669,-0.46
8682,2.37
8695,-1.34
8709,-0.68
8722,1.12
8735,-1.60
8748,1.48
8762,1.16
8775,-1.00
8788,-1.35
8802,1.22
8815,-1.13
8828,-0.19
8842,2.00
8855,-1.01
8869,-0.18
8882,2.67
8895,-2.52
8909,-2.80
8922,2.40
8935,1.23
8948,-0.37
8962,0.98
8975,-1.61
8988,-1.26
9002,1.32
9015,1.22
9028,-1.46
9042,1.07
9055,-0.84
9068,-1.31
9082,1.75
9095,1.01
9108,-0.86
9122,0.14
9135,-1.88
9148,-0.53
9162,2.49
9175,0.77
9189,-0.47
9202,-0.45
9215,-2.09
9228,-0.28
9242,3.66
9255,-1.25
9269,-1.25
9282,2.40
9295,-1.88
9309,-2.30
9322,3.11
9335,0.04
9348,-0.60
9362,1.09
9375,-0.88
9389,-2.18
9402,1.76
9415,0.61
9428,-0.19
9442,0.62
9455,-1.01
9468,-0.34
9482,0.21
9495,-0.28
9508,0.22
9522,2.15
9535,-1.50
9548,-1.19
9562,0.14
9575,0.88
9588,-0.26
9602,0.88
9615,-0.83
9628,-0.76
9642,2.48
9655,-1.97
9668,-1.32
9682,1.65
9695,0.74
9709,-0.42
9722,0.25
9735,-1.00
9748,-0.00
9762,0.42
9775,-0.42
9788,0.24
9802,0.77
9815,0.15
9828,-0.86
9842,-0.06
9855,-0.80
9868,0.55
9882,1.66
9895,-1.46
9908,0.41
9922,0.07
9935,-0.95
9948,0.65
9962,0.74
9975,-0.93
9988,-0.61
10002,1.31
10015,-0.01
10029,-0.72
10042,0.71
10055,-1.19
10068,0.86
10082,0.68
10095,-1.21
10108,-0.80
10122,2.07
10135,0.15
10148,-1.74
10162,0.13
10175,0.03
10188,1.97
10202,-0.07
10215,-2.30
10229,-0.71
10242,1.14
10255,0.88
10268,0.61
10282,0.76
10295,-1.59
10308,-1.77
10322,0.77
10335,0.60
10348,0.36
10362,1.12
10375,-0.80
10389,-0.43
10402,0.20
10415,-1.78
10428,0.88
10442,3.19
10455,-1.92
10469,-1.45
10482,-0.52
10495,0.45
10508,1.99
10522,2.06
10535,-2.96
10548,-2.75
10562,1.62
10575,1.60
10588,0.87
10602,-0.66
10615,-1.90
10628,0.44
10642,1.29
10655,-0.50
10669,0.22
10682,-0.46
10695,0.01
10709,-0.49
10722,1.53
10735,-0.46
10748,-1.33
10762,0.63
10775,0.31
10789,0.08
10802,0.83
10815,-0.84
10828,-1.02
10842,0.84
10855,0.03
10868,-0.26
10882,1.08
10895,-1.05
10908,-0.19
10922,1.79
10935,-1.52
10949,-1.49
10962,1.62
10975,0.95
10989,-0.41
11002,-0.04
11015,-0.91
11028,-1.30
11042,2.76
11055,-0.30
11068,-0.87
11082,-0.14
11095,-0.30
11108,1.05
11122,0.54
11135,-1.31
11148,-0.77
11162,1.22
11175,0.75
11188,-1.33
11202,0.21
11215,0.36
11228,-0.50
11242,1.44
11255,-0.59
11268,-1.54
11282,0.17
11295,1.66
11308,-1.02
11322,0.14
11335,0.95
11349,-0.68
11362,-0.22
11375,-0.10
11388,-0.94
11402,0.97
11415,0.49
11428,-0.04
11442,0.38
11455,-0.05
11468,-3.05
11482,2.52
11495,1.43
11509,-1.92
11522,-0.55
11535,1.33
11548,-1.29
11562,1.45
11575,2.18
11588,-4.47
11602,-0.93
11615,2.94
11628,0.82
11642,0.01
11655,-0.15
11668,-2.07
11682,-0.29
11695,0.48
11709,1.12
11722,1.11
11735,0.92
11748,-3.73
11762,-1.06
11775,3.04
11788,0.30
11802,0.20
11815,-0.54
11828,-2.61
11842,1.73
11855,2.07
11869,-2.34
11882,-0.33
11895,2.43
11908,-0.89
11922,-1.39
11935,1.29
11948,-2.28
11962,0.81
11975,3.67
11988,-1.90
12002,-2.15
12015,1.69
12028,-0.96
12042,-0.33
12055,3.07
12068,-2.52
12082,-0.82
12095,2.13
12108,-1.24
12122,0.14
12135,2.33
12148,-3.69
12162,-0.40
12175,3.92
12188,-1.10
12202,-2.04
12215,2.09
12228,-1.81
12242,-0.89
12255,5.09
12268,-3.17
12282,-3.08
12295,5.06
12309,-1.86
12322,-1.99
12335,2.77
12348,-1.09
12362,-0.29
12375,2.27
12388,-2.39
12402,-2.90
12415,4.63
12428,0.31
12442,-1.51
12455,1.20
12468,-2.28
12482,-1.70
12495,3.87
12508,-0.49
12522,-0.97
12535,2.40
12548,-2.70
12562,-1.71
12575,3.54
12588,-1.29
12602,-0.52
12615,2.27
12628,-2.23
12642,-1.78
12655,5.20
12668,-2.73
12682,-2.36
12695,3.81
12709,-1.96
12722,-1.64
12735,4.50
12748,-2.54
12762,-1.55
12775,3.94
12788,-2.75
12802,-2.56
12815,5.06
12828,-1.87
12842,-2.33
12855,5.43
12868,-3.03
12882,-4.57
12895,6.60
12908,-0.77
12922,-3.36
12935,2.68
12948,-2.26
12962,0.08
12975,4.80
12988,-2.49
13002,-4.25
13015,4.08
13028,-1.19
13042,-1.29
13055,5.58
13068,-3.92
13082,-3.86
13095,6.04
13108,-1.81
13122,-3.07
13135,6.54
13148,-3.67
13162,-4.79
13175,7.15
13188,-1.53
13201,-2.81
13215,5.38
13228,-4.72
13242,-4.72
13255,9.88
13268,-1.14
13282,-5.05
13295,3.73
13308,-3.29
13322,-2.92
13335,9.38
13348,-1.79
13362,-5.59
13375,4.04
13389,-3.40
13402,-1.53
13415,8.11
13428,-3.68
13442,-4.48
13455,7.53
13468,-4.07
13482,-4.16
13495,8.21
13508,-4.03
13522,-4.76
13535,8.99
13549,-2.65
13562,-5.58
13575,8.13
13588,-3.64
13602,-5.42
13615,8.71
13628,-3.42
13642,-5.06
13655,9.62
13668,-2.94
13682,-5.88
13695,6.16
13708,-2.74
13722,-3.19
13735,8.73
13748,-4.63
13762,-5.25
13775,9.52
13788,-3.83
13802,-5.97
13815,9.47
13828,-4.13
13842,-5.40
13855,10.27
13868,-3.55
13882,-6.64
13895,9.75
13908,-5.42
13922,-4.92
13935,12.15
13948,-4.82
13962,-7.16
13975,7.69
13988,-0.71
14002,-6.05
14015,12.62
14028,-9.15
14042,-8.74
14055,16.31
14068,-3.79
14082,-8.28
14095,13.89
14108,-9.05
14122,-8.53
14135,15.63
14148,-6.10
14162,-7.53
14175,16.44
14188,-6.51
14202,-11.02
14215,13.44
14228,-5.25
14242,-6.86
14255,14.57
14268,-5.07
14282,-10.93
14295,13.85
14309,-4.81
14322,-6.80
14335,16.19
14348,-9.34
14362,-12.26
14375,17.08
14388,-3.17
14405,-7.35
14415,12.80
14428,-7.14
14442,-9.01
14455,13.89
14468,-4.34
14482,-7.98
14495,13.82
14508,-5.82
14522,-9.25
14535,15.19
14548,-4.75
14562,-10.86
14575,14.59
14588,-4.57
14602,-8.90
14615,13.43
14628,-4.67
14642,-8.64
14655,14.23
14668,-6.04
14681,-7.92
14695,13.51
14708,-5.54
14722,-9.09
14735,13.63
14748,-3.36
14762,-7.84
14775,11.90
14789,-5.93
14802,-9.31
14815,16.96
14828,-5.26
14842,-13.08
14855,21.58
14868,-11.39
14882,-15.43
14895,26.73
14908,-3.50
14922,-17.94
14935,17.71
14948,-8.83
14962,-10.49
14975,23.11
14988,-7.31
15002,-15.15
15015,19.93
15028,-6.98
15042,-12.35
15055,21.52
15068,-10.06
15082,-13.28
15095,22.36
15108,-6.74
15122,-14.89
15135,21.64
15148,-6.84
15162,-14.94
15175,20.04
15188,-5.48
15202,-12.00
15215,17.49
15228,-7.64
15242,-10.03
15255,19.29
15268,-7.75
15282,-12.76
15295,19.00
15308,-6.81
15322,-11.41
15335,19.49
15348,-7.53
15362,-12.49
15375,19.08
15388,-7.09
15402,-11.93
15415,20.38
15428,-9.21
15442,-11.34
15455,21.28
15468,-8.96
15482,-13.87
15495,21.29
15508,-6.37
15522,-13.49
15535,19.39
15548,-6.34
15562,-12.60
15575,18.47
15588,-5.81
15602,-12.34
15615,17.61
15628,-6.34
15642,-10.27
15655,18.20
15668,-8.51
15682,-8.89
15695,14.28
15708,-5.07
15722,-7.92
15735,14.29
15748,-6.39
15762,-11.16
15775,18.45
15788,-5.92
15802,-11.91
15815,20.03
15828,-10.52
15842,-13.81
15855,25.27
15868,-7.95
15882,-15.93
15895,22.77
15908,-8.08
15922,-13.61
15935,19.39
15948,-6.60
15962,-10.82
15975,18.44
15988,-6.98
16002,-11.64
16015,16.87
16028,-5.15
16042,-12.75
16055,18.33
16068,-4.98
16082,-11.70
16095,17.71
16108,-7.71
16122,-11.72
16135,18.86
16148,-6.29
16162,-11.20
16175,18.49
16188,-8.65
16202,-10.34
16215,19.26
16228,-7.69
16242,-13.31
16255,20.08
16268,-5.91
16282,-12.66
16295,19.17
16308,-7.19
16321,-12.95
16335,19.06
16348,-5.70
16362,-12.01
16375,17.73
16388,-6.01
16402,-12.22
16415,19.65
16428,-8.21
16441,-9.59
16455,5.99
16468,10.23
16482,-0.67
16495,-10.42
16508,-6.10
16521,4.29
16535,12.92
16548,-2.79
16562,-8.05
16575,9.63
16588,-10.65
16601,-9.01
16615,21.68
16628,-4.31
16642,-11.58
16655,16.25
16668,-8.74
16682,-12.72
16695,21.42
16708,-6.94
16722,-12.09
16735,19.23
16748,-7.82
16762,-11.98
16775,20.64
16788,-8.82
16802,-12.00
16815,19.56
16828,-7.11
16842,-13.36
16855,21.30
16868,-6.28
16882,-14.21
16895,20.74
16908,-9.71
16922,-12.67
16935,22.85
16948,-7.56
16962,-13.66
16975,20.57
16988,-8.22
17002,-12.73
17015,20.13
17028,-7.39
17042,-12.08
17055,19.86
17068,-6.83
17082,-12.30
17095,17.83
17108,-6.74
17122,-11.47
17135,18.21
17148,-5.62
17162,-11.09
17175,17.08
17188,-7.54
17202,-11.23
17215,18.31
17228,-5.66
17242,-10.87
17255,17.53
17268,-8.12
17282,-12.44
17295,22.54
17308,-10.07
17322,-13.72
17335,23.96
17348,-7.22
17362,-12.02
17375,8.68
17388,2.72
17401,-5.43
17415,7.94
17428,-8.52
17442,-6.84
17455,17.48
17468,-3.82
17482,-10.53
17495,14.20
17508,-7.84
17522,-10.60
17535,17.45
17548,-5.11
17562,-9.67
17575,17.95
17588,-7.66
17602,-13.51
17615,18.34
17628,-4.42
17642,-12.01
17655,17.62
17668,-6.54
17682,-11.97
17695,17.46
17708,-4.72
17722,-10.48
17735,15.28
17748,-5.94
17762,-8.54
17775,10.15
17788,-0.29
17802,-5.70
17815,5.72
17828,-3.34
17842,-5.15
17855,15.92
17868,-10.83
17882,-11.73
17895,20.14
17908,-1.54
17922,-9.08
17935,-0.67
17948,3.94
17962,0.11
17975,2.05
17988,-3.87
18002,-3.38
18015,10.65
18028,-4.45
18042,-7.26
18055,12.63
18068,-6.71
18081,-8.81
18095,13.82
18108,-3.35
18121,-8.06
18135,12.70
18148,-4.54
18161,-9.34
18175,14.94
18188,-7.15
18201,-10.99
18215,17.89
18228,-3.33
18242,-10.65
18255,11.28
18268,-3.82
18282,-6.79
18295,10.34
18308,-2.09
18322,-5.43
18335,3.77
18348,0.30
18361,-1.65
18375,4.48
18388,-5.97
18402,-3.39
18415,11.27
18428,-2.34
18442,-7.78
18455,7.23
18468,-2.81
18481,-4.15
18495,6.84
18508,-0.50
18522,-3.78
18535,4.41
18548,-3.47
18561,-3.78
18575,7.29
18588,-0.94
18601,-3.81
18615,4.48
18628,-1.95
18642,-4.34
18656,6.40
18668,-1.82
18681,-3.63
18695,4.35
18708,-0.79
18721,-1.22
18735,2.63
18748,-0.83
18761,-6.49
18775,8.11
18788,-3.39
18801,-2.30
18815,4.78
18828,3.19
18842,-3.87
18855,-4.25
18868,-2.28
18882,2.76
18895,6.99
18908,0.33
18922,-5.39
18935,0.70
18948,-2.71
18962,-0.82
18975,8.61
18988,-5.94
19002,-3.95
19015,7.44
19028,1.06
19041,-3.38
19055,-1.52
19068,-1.58
19082,0.64
19095,3.44
19108,0.40
19122,-0.56
19135,-0.22
19148,-2.35
19162,-1.14
19175,3.62
19188,-0.56
19202,-0.97
19215,1.07
19228,-0.64
19241,-0.66
19255,1.81
19268,-1.05
19282,-1.57
19295,1.93
19308,-0.92
19322,0.71
19335,0.74
19348,-1.11
19362,-1.01
19375,1.85
19388,-0.62
19402,-0.99
19415,1.17
19428,0.22
19441,-0.77
19455,1.01
19468,-1.42
19482,-1.67
19495,7.23
19508,-5.36
19522,-5.59
19535,6.36
19548,3.97
19562,0.00
19575,-4.25
19588,-5.74
19602,0.68
19615,5.82
19628,4.87
19642,-2.11
19655,-3.98
19668,-2.82
19682,0.58
19695,3.19
19708,0.83
19722,-0.92
19735,0.09
19748,-0.63
19761,-0.34
19775,0.33
19788,0.54
19802,-0.73
19815,0.15
19828,0.71
19841,-0.53
19855,-0.83
19868,0.44
19881,0.43
19895,1.50
19908,-1.19
19922,-1.46
19935,1.29
19948,-0.28
19961,-0.98
19975,1.04
19988,0.58
20002,0.01
20015,0.48
20028,-1.19
20041,-1.28
20055,1.49
20068,0.09
20081,-0.52
20095,0.43
20108,0.43
20122,-0.63
20135,1.83
20148,-1.70
20161,-2.28
20175,1.92
20188,0.58
20202,0.67
20215,0.21
20228,-1.20
20242,-0.74
20255,1.06
20268,-0.23
20282,-0.62
20295,0.79
20308,0.45
20322,-0.43
20335,-0.29
20348,-0.36
20361,0.25
20375,1.90
20388,-1.65
20401,-1.45
20415,0.27
20428,1.70
20442,1.46
20455,-1.15
20468,-2.09
20481,-0.41
20495,1.43
20508,1.24
20522,0.64
20535,-1.85
20548,-0.58
20561,-0.29
20575,0.62
20588,3.42
20601,-3.68
20615,-2.01
20628,2.92
20642,1.98
20655,0.58
20668,-4.82
20681,-0.41
20695,1.88
20708,2.10
20722,-1.43
20735,0.81
20748,-0.44
20761,-0.69
20775,0.17
20788,0.50
20801,-2.04
20815,0.26
20828,2.68
20842,0.29
20855,-1.44
20868,-0.05
20882,-1.22
20895,-0.32
20908,5.15
20922,-5.68
20935,-0.90
20948,5.43
20962,-1.91
20975,-1.13
20994,2.16
21001,-2.13
21015,-1.21
21028,0.23
21041,2.27
21055,0.78
21068,-0.35
21081,-2.68
21095,0.19
21108,1.88
21121,0.08
21135,-1.20
21148,1.60
21161,-2.19
21175,-0.30
21188,2.94
21202,-1.95
21215,-0.30
21228,3.42
21242,-3.51
21255,-1.49
21268,3.46
21281,-1.46
21295,-1.49
21308,4.94
21321,-2.49
21335,-3.43
21348,3.22
21361,-0.62
21375,-0.76
21388,3.02
21401,-2.06
21415,-1.66
21428,2.95
21442,-1.78
21455,-0.99
21468,1.88
21481,0.47
21495,-0.79
21508,-0.42
21521,-0.48
21535,0.27
21548,3.81
21562,-4.61
21575,-5.20
21588,15.20
21601,-8.60
21615,-8.06
21628,8.71
21641,4.79
21655,-2.67
21668,-3.96
21682,-4.22
21695,0.81
21708,8.57
21722,-0.26
21735,-5.45
21748,4.26
21762,-3.39
21775,-3.45
21788,5.43
21801,-1.46
21815,-0.98
21828,5.76
21841,-5.08
21855,-3.87
21868,7.77
21882,-2.78
21895,-4.80
21908,8.55
21922,-4.71
21935,-4.35
21948,8.99
21961,-2.46
21975,-5.47
21988,5.65
22001,-2.55
22015,-3.38
22028,7.35
22041,-1.14
22055,-5.25
22068,5.64
22082,-3.74
22095,-2.11
22108,6.58
22122,-4.14
22135,-2.61
22148,7.92
22161,-3.90
22175,-4.43
22188,6.91
22201,-3.60
22215,-3.94
22228,8.16
22241,-2.64
22255,-4.41
22268,6.73
22282,-3.44
22295,-4.77
22308,8.39
22322,-2.66
22335,-4.07
22348,5.97
22361,-3.52
22375,-3.07
22388,8.28
22401,-3.40
22415,-5.57
22428,6.26
22441,-1.04
22455,-3.30
22468,5.98
22481,-4.36
22495,-3.27
22508,7.43
22521,-1.44
22535,-3.18
22548,0.76
22561,0.19
22575,-0.03
22588,2.91
22602,-4.39
22615,-1.03
22628,6.62
22641,-1.77
22655,-4.98
22668,4.80
22681,-2.64
22695,-3.20
22708,9.38
22721,-4.03
22735,-6.73
22748,8.63
22761,-2.08
22775,-5.20
22788,8.21
22801,-3.54
22815,-5.13
22828,8.01
22841,-3.03
22855,-4.94
22868,9.04
22881,-3.01
22895,-7.09
22908,9.65
22922,-3.73
22935,-4.76
22948,8.23
22961,-2.57
22975,-6.26
22988,9.08
23002,-3.26
23015,-5.16
23028,7.98
23041,-3.16
23055,-5.04
23068,8.26
23081,-2.50
23094,-5.58
23108,9.70
23121,-6.69
23135,-3.63
23148,5.48
23161,3.93
23174,-0.98
23188,-5.34
23201,-2.20
23215,1.80
23228,3.98
23241,0.23
23255,-1.28
23268,3.30
23281,-5.93
23295,-4.49
23308,11.67
23322,-4.71
23335,-7.05
23348,14.88
23361,-7.35
23375,-9.10
23388,12.33
23401,-1.06
23415,-6.63
23428,4.78
23441,-1.68
23455,-1.65
23468,4.52
23481,-1.45
23494,-4.08
23508,6.67
23521,-3.29
23535,-4.87
23548,6.76
23561,-0.66
23575,-3.83
23588,5.66
23601,-3.77
23615,-3.99
23628,7.76
23641,-2.61
23655,-4.55
23668,8.01
23681,-3.16
23695,-5.17
23708,6.49
23721,-1.99
23735,-4.87
23748,9.76
23761,-5.16
23775,-4.18
23788,8.15
23801,-3.46
23815,-5.42
23828,8.51
23841,-3.69
23855,-4.16
23868,8.44
23881,-2.65
23895,-4.93
23908,5.44
23922,-2.79
23935,-2.68
23948,6.50
23961,-2.12
23975,-3.22
23988,4.67
24001,-3.41
24015,-1.85
24028,6.73
24041,-3.06
24055,-5.33
24068,5.69
24081,-0.87
24095,-1.61
24108,6.58
24121,-5.38
24135,-5.75
24148,7.05
24161,-0.65
24175,-2.01
24188,5.47
24201,-3.44
24215,-4.84
24228,6.70
24242,-2.60
24255,-2.53
24268,4.70
24281,-1.76
24295,-1.06
24308,3.29
24321,-3.67
24334,-1.48
24348,5.73
24361,-3.17
24375,-3.87
24388,7.54
24401,-2.00
24415,-4.70
24428,5.12
24441,-2.72
24455,-2.33
24468,7.29
24481,-3.19
24495,-5.08
24508,6.11
24521,-1.49
24535,-2.91
24548,4.54
24561,-2.70
24575,-1.54
24588,5.87
24601,-3.91
24615,-3.96
24628,6.20
24641,-1.21
24655,-3.84
24668,5.86
24681,-1.80
24695,-3.67
24708,2.78
24721,-0.34
24735,-1.78
24748,4.70
24762,-1.83
24775,-3.02
24788,3.42
24801,-2.27
24815,-1.72
24828,4.88
24841,-1.82
24855,-1.65
24868,3.21
24881,-1.99
24895,-2.43
24908,4.02
24921,-2.59
24935,-1.43
24948,5.16
24961,-0.70
24975,-3.91
24988,1.65
25002,0.02
25015,-1.00
25028,3.01
25041,-2.21
25055,-1.39
25068,2.91
25081,-0.52
25095,-0.70
25108,0.91
25121,-2.11
25135,0.44
25148,1.88
25161,-0.76
25175,-1.31
25188,1.24
25201,0.04
25215,-0.39
25228,2.00
25241,-1.86
25255,-2.43
25268,2.16
25281,0.27
25295,0.56
25308,1.91
25322,-2.67
25335,-2.21
25348,2.54
25361,0.43
25375,-0.33
25388,0.43
25401,-1.21
25415,-0.75
25428,2.01
25441,0.77
25455,-0.12
25468,-3.15
25481,-0.78
25494,2.43
25508,2.99
25522,-1.31
25535,-2.24
25548,-0.02
25561,-1.29
25575,1.47
25588,2.86
25601,-0.89
25615,-1.81
25630,-0.68
25641,-0.68
25654,1.85
25668,2.30
25681,-1.41
25694,-2.40
25708,0.75
25721,-0.55
25735,1.98
25748,1.06
25761,-1.33
25775,-1.88
25788,0.73
25801,-0.16
25815,1.80
25828,0.73
25841,-2.03
25855,-0.67
25868,0.74
25881,0.10
25895,0.12
25908,1.08
25922,-0.72
25935,-1.12
25948,1.04
25961,-1.56
25975,2.44
25988,0.50
26001,-2.98
26015,-0.00
26028,2.34
26041,-0.49
26055,0.21
26068,-0.50
26081,-1.07
26095,-0.23
26108,1.01
26121,1.11
26135,0.08
26148,-0.71
26161,-1.50
26175,0.37
26188,1.50
26201,-0.85
26215,-0.27
26228,0.72
26241,-0.73
26255,0.83
26268,0.61
26281,-1.01
26295,-0.61
26308,-0.80
26321,0.50
26334,2.20
26348,0.15
26361,-1.86
26375,-0.05
26388,0.65
26401,-1.02
26415,0.88
26428,-0.09
26441,-0.38
26455,1.02
26468,-0.19
26481,-0.52
26495,-0.25
26508,0.77
26521,-0.72
26535,-0.67
26548,1.25
26561,0.17
26575,-0.64
26588,1.35
26601,-1.78
26615,-0.85
26628,2.09
26641,0.16
26655,-0.10
26668,-1.05
26681,-1.37
26695,0.74
26708,2.88
26721,-0.68
26734,-1.09
26748,-0.73
26761,-0.28
26775,0.22
26788,0.63
26801,0.45
26815,0.78
26828,-1.21
26841,-0.26
26855,-0.54
26868,0.80
26881,0.48
26895,-0.39
26908,-0.29
26921,-0.35
26935,0.63
26948,0.73
26961,-0.08
26975,-1.55
26988,0.33
27001,0.11
27015,0.85
27028,0.15
27041,-0.60
27055,-0.56
27068,1.02
27081,-0.91
27095,0.36
27108,0.50
27121,0.42
27134,-1.56
27148,0.03
27161,0.22
27175,1.28
27188,0.59
27201,-2.11
27215,-0.02
27228,1.06
27241,0.16
27255,-0.89
27268,0.27
27281,-0.20
27295,0.13
27308,1.31
27321,-0.54
27334,-1.03
27348,-0.17
27361,0.66
27375,-0.44
27388,1.41
27401,-1.26
27415,0.23
27428,0.44
27441,-0.67
27455,-0.86
27468,2.50
27481,-0.99
27495,-1.00
27508,1.36
27521,-1.25
27535,-1.01
27548,1.84
27561,0.72
27575,0.05
27588,-1.00
27601,-1.18
27615,0.65
27628,0.18
27641,0.34
27655,0.40
27668,0.73
27681,-1.42
27695,-0.39
27708,-0.20
27722,0.37
27734,1.86
27748,0.01
27761,-2.84
27774,-0.47
27788,3.10
27801,-0.13
27815,-0.38
27828,-0.95
27841,-1.56
27855,1.06
27868,1.87
27881,-0.15
27895,-0.74
27908,-0.32
27921,-0.10
27935,-0.19
27948,-0.07
27961,0.29
27975,0.46
27988,0.38
28001,-0.82
28015,0.14
28028,0.62
28041,-0.74
28054,-0.83
28068,-0.16
28081,1.30
28094,1.60
28108,0.09
28121,-3.49
28134,-0.46
28148,1.56
28161,1.78
28174,0.22
28188,-1.22
28201,-1.18
28215,-0.10
28228,0.92
28241,0.09
28254,0.65
28268,0.81
28281,-2.13
28294,-1.25
28308,2.53
28321,0.55
28334,-1.26
28348,-0.57
28361,-0.07
28374,1.45
28388,0.52
28401,-1.78
28415,-0.30
28428,0.69
28441,0.44
28455,-0.23
28468,0.49
28481,-0.67
28494,-0.36
28508,0.45
28521,0.61
28535,-1.14
28548,1.46
28561,-1.14
28574,-1.02
28588,1.07
28601,0.96
28615,-0.04
28628,0.35
28641,-1.50
28655,-0.94
28668,0.04
28681,0.48
28694,2.74
28708,0.96
28721,-2.30
28735,-2.93
28748,0.51
28761,0.69
28774,2.26
28788,1.20
28802,-1.09
28815,-2.08
28828,-0.16
28841,0.02
28855,0.73
28868,1.04
28881,0.16
28895,-0.32
28908,-0.26
28921,-1.98
28934,0.06
28948,2.73
28961,1.16
28975,-2.22
28988,-1.68
29001,0.64
29014,1.42
29028,0.41
29041,-0.78
29055,0.05
29068,-0.65
29081,-0.01
29094,0.75
29108,0.63
29122,-1.02
29135,-0.02
29148,0.45
29161,-1.48
29175,0.95
29188,2.24
29201,-1.54
29214,-2.09
29228,0.65
29241,1.36
29255,1.62
29268,-1.23
29281,-1.83
29294,-0.46
29308,1.67
29321,0.30
29334,-0.39
29348,0.78
29361,-0.50
29374,-0.85
29388,0.77
29401,-1.12
29415,1.09
29428,-0.00
29441,0.08
29455,-0.10
29468,-0.60
29481,-0.32
29494,1.76
29508,-0.30
29521,-0.09
29534,-1.64
29548,-0.48
29561,0.70
29575,2.31
29588,0.53
29601,-1.75
29614,-1.87
29628,0.55
29641,1.26
29655,-0.24
29668,0.73
29681,-0.37
29694,-0.12
29708,0.38
29721,-1.80
29735,-0.21
29748,1.97
29761,0.75
29775,-0.73
29788,-0.50
29801,-0.74
29814,-0.56
29828,1.22
29841,0.42
29854,-0.02
29868,0.71
29881,-1.00
29895,-1.20
29908,0.78
29922,0.15
29935,0.25
29948,-0.24
29961,0.92
29974,0.09
29988,-1.10
30002,-0.67
30015,-0.26
30028,1.67
30041,0.86
30054,-1.21
30068,0.07
30081,-1.46
30095,-0.12
30108,2.24
30122,1.07
30135,-2.04
30148,-0.75
30161,-0.11
30174,0.62
30188,1.46
30201,-0.64
30214,-1.14
30228,0.69
30241,-0.05
30254,-0.33
30268,0.70
30281,0.22
30295,-1.17
30308,-0.01
30321,0.36
30334,1.13
30348,0.66
30361,-2.57
30374,-1.44
30388,3.59
30401,0.24
30415,-1.83
30428,0.15
30441,0.21
30454,0.03
30468,0.72
30481,-0.81
30494,-0.77
30508,1.29
30521,-0.55
30534,0.23
30548,1.37
30561,-2.37
30574,0.10
30588,1.98
30602,-1.33
30615,-0.52
30628,0.69
30641,0.62
30655,-0.51
30668,0.73
30681,-1.58
30695,-0.71
30708,2.04
30721,0.57
30735,-0.99
30748,-0.16
30761,-0.73
30774,-0.15
30788,1.50
30801,-0.18
30815,0.18
30828,-1.46
30841,0.34
30855,1.29
30868,0.28
30881,-1.78
30894,-1.95
30908,3.21
30921,1.91
30934,-1.42
30948,-1.41
30961,-1.97
30974,1.18
30988,2.83
31001,-0.31
31015,-1.77
31028,0.16
31041,-0.01
31055,-0.04
31068,0.96
31081,-0.53
31094,-0.75
31108,0.75
31121,0.52
31135,-1.14
31148,0.44
31161,0.33
31174,-0.84
31188,1.99
31201,-1.19
31215,-1.78
31228,1.10
31241,0.93
31254,0.08
31268,0.38
31281,-1.13
31294,-0.89
31308,1.14
31321,0.16
31334,-0.37
31348,0.91
31361,-0.97
31374,-0.63
31388,1.91
31401,-0.42
31414,-1.66
31428,0.60
31441,-0.14
31455,1.05
31468,1.59
31481,-2.84
31494,-0.28
31508,1.10
31521,0.30
31534,-0.50
31548,-0.16
31561,0.46
31575,0.24
31588,0.46
31601,-1.05
31615,-1.33
31628,1.37
31641,1.32
31655,-0.65
31668,-0.43
31681,-1.61
31694,0.89
31708,2.60
31721,-2.13
31734,0.15
31748,0.27
31761,-0.75
31775,-0.34
31788,0.08
31801,1.96
31814,0.12
31828,-1.19
31841,-0.94
31855,-0.16
31868,1.19
31881,-0.18
31894,-0.35
31908,1.12
31921,-0.29
31934,-0.75
31948,-0.34
31961,0.76
31975,-0.01
31988,-0.47
32001,-0.40
32014,-0.08
32028,3.08
32042,-1.17
32055,-2.73
32068,0.33
32081,1.02
32094,0.71
32108,0.85
32121,-1.12
32134,-1.18
32148,0.74
32161,0.75
32174,-0.81
32188,-0.18
32201,0.80
32214,0.15
32228,0.75
32241,-2.14
32255,-0.89
32268,1.66
32281,1.73
32295,-0.43
32308,-0.94
32321,-1.64
32334,-0.11
32348,2.22
32361,0.46
32375,-0.92
32388,0.05
32401,-0.72
32414,-0.43
32428,1.22
32441,-0.05
32454,-0.55
32468,0.73
32481,-0.55
32494,0.20
32508,-0.77
32521,1.48
32534,-1.44
32548,0.01
32561,1.76
32574,-0.85
32588,-0.07
32601,-1.51
32615,0.01
32628,2.43
32641,0.28
32655,-1.48
32668,-0.49
32681,0.10
32694,-0.57
32708,1.20
32721,0.30
32734,0.52
32748,-1.02
32761,-0.94
32777,0.62
32788,1.41
32801,-2.05
32814,-0.59
32828,3.19
32841,0.07
32854,-1.83
32867,-1.41
32881,-0.00
32894,0.98
32908,2.95
32921,-0.60
32934,-2.59
32948,-1.17
32961,1.05
32974,1.39
32988,1.08
33001,-1.31
33015,-0.96
33028,-0.43
33041,2.16
33054,-0.34
33068,-0.99
33081,-0.28
33094,-1.07
33107,3.01
33121,-0.10
33134,-0.97
33148,-1.39
33161,0.15
33174,1.00
33187,1.21
33201,-1.13
33214,-1.20
33228,1.10
33241,0.31
33254,-0.36
33268,0.25
33281,0.48
33294,-1.36
33308,-0.42
33321,0.64
33334,1.56
33348,-0.39
33361,0.20
33374,-1.47
33388,-2.05
33401,2.89
33415,0.78
33428,-0.68
33441,-0.33
33454,0.15
33468,-0.15
33481,-0.52
33494,-0.40
33508,1.02
33521,-0.06
33534,-0.10
33548,0.35
33561,0.18
33574,-0.58
33588,0.03
33601,-0.67
33615,-0.62
33628,1.74
33641,1.14
33654,-1.08
33668,-1.02
33681,-0.32
33694,-0.45
33708,2.34
33721,-0.19
33734,-0.92
33748,-0.14
33761,0.23
33774,-0.28
33788,0.33
33801,-0.62
33814,-0.07
33828,1.59
33841,0.01
33854,-1.59
33868,0.26
33881,0.91
33894,-1.89
33908,2.09
33921,-0.44
33934,-1.31
33948,1.17
33961,-0.22
33974,1.25
33988,-0.86
34001,-0.58
34014,-1.73
34028,1.82
34041,1.11
34055,-0.45
34068,-0.19
34081,-0.29
34094,-1.11
34108,0.92
34121,0.47
34134,0.04
34148,-0.17
34161,-0.28
34174,-0.39
34188,0.50
34201,0.23
34214,-0.92
34227,0.89
34241,0.30
34255,-0.36
34268,0.28
34281,-0.98
34295,-0.48
34308,0.74
34321,0.94
34334,-0.06
34348,0.01
34361,-1.07
34374,-1.18
34388,2.06
34401,1.35
34414,-2.58
34428,-0.17
34441,2.05
34454,-1.63
34468,0.06
34481,0.64
34494,0.94
34508,-0.14
34521,-1.60
34534,-1.82
34548,2.57
34561,1.07
34574,-0.33
34588,0.14
34601,-1.29
34615,-1.12
34628,1.05
34641,0.55
34655,-0.76
34668,2.30
34681,-0.89
34694,-1.91
34708,0.44
34721,1.30
34734,-1.25
34748,1.15
34761,-0.34
34774,-0.55
34788,0.71
34801,0.20
34814,-1.57
34828,1.00
34841,0.33
34855,-0.33
34868,0.49
34881,0.10
34894,-1.33
34908,0.47
34921,0.29
34934,0.22
34948,0.12
34961,-0.15
34974,-0.47
34988,0.49
35001,-0.52
35014,-0.10
35028,0.68
35041,0.64
35054,-1.17
35068,0.43
35081,0.07
35094,-1.25
35108,0.13
35121,1.53
35134,0.70
35148,-0.14
35161,-2.03
35174,-1.01
35188,1.99
35201,-0.00
35214,0.94
35228,-0.16
35241,-1.15
35254,-1.39
35267,1.14
35281,2.26
35294,-1.24
35308,-2.15
35321,1.92
35334,0.60
35347,-0.55
35361,-0.94
35375,-0.84
35388,1.75
35401,0.83
35415,-0.38
35428,-0.81
35441,-0.54
35454,0.13
35468,-0.29
35481,1.11
35494,0.48
35508,0.20
35521,-2.00
35534,-0.59
35548,2.93
35561,-0.23
35574,-2.58
35588,1.40
35601,1.24
35614,-2.25
35627,-0.06
35641,1.77
35654,0.84
35667,-0.97
35681,-1.19
35694,-0.89
35708,1.60
35721,0.51
35734,0.09
35748,-0.08
35761,-0.63
35774,-1.61
35788,0.80
35801,2.85
35814,-0.33
35828,-2.37
35841,-0.47
35854,-0.18
35868,2.10
35881,0.21
35894,-0.93
35908,0.39
35921,-0.42
35934,-0.54
35948,0.64
35961,0.28
35974,-1.17
35988,0.52
36001,1.09
36014,-0.48
36028,-0.47
36041,0.16
36054,0.17
36068,-0.56
36081,0.97
36094,-1.42
36108,0.30
36121,0.90
36134,-0.07
36148,1.07
36161,-0.41
36174,-3.24
36188,0.93
36201,1.75
36214,0.81
36228,-0.53
36241,-0.16
36254,-1.18
36268,-0.39
36281,1.01
36295,0.10
36308,1.29
36321,-0.65
36334,-2.67
36348,1.46
36361,1.77
36374,0.20
36388,-2.41
36401,-0.18
36414,0.66
36428,1.60
36441,0.27
36455,-1.96
36468,-0.30
36481,1.01
36495,-0.74
36508,0.77
36521,0.87
36534,-0.44
36548,-1.26
36561,0.10
36574,0.28
36588,1.02
36601,-0.71
36614,-1.49
36628,2.90
36641,1.15
36655,-4.05
36668,-0.74
36681,1.22
36694,2.32
36708,0.61
36721,-1.84
36734,-1.03
36748,0.41
36761,1.32
36774,-0.99
36788,-0.23
36801,-0.14
36814,0.69
36827,0.47
36841,1.18
36854,-2.22
36868,-1.75
36881,2.50
36894,0.29
36908,-0.13
36921,0.00
36934,-1.45
36948,0.74
36961,1.09
36975,-0.46
36988,-0.41
37001,-0.99
37014,0.31
37027,1.32
37041,0.65
37054,-0.70
37068,-1.12
37081,-0.23
37094,-0.13
37108,1.40
37121,0.82
37134,-1.57
37148,0.21
37161,0.47
37175,-1.46
37188,0.06
37201,2.22
37215,0.30
37227,-1.19
37241,-2.16
37254,0.15
37268,2.13
37281,1.55
37294,-1.33
37308,-1.09
37321,0.23
37334,-0.75
37348,-0.19
37361,1.86
37375,0.07
37388,0.47
37401,-1.31
37415,-1.78
37428,1.09
37441,2.28
37454,-0.82
37468,-1.73
37481,0.66
37494,0.60
37508,-0.47
37521,0.88
37534,-0.40
37548,-0.20
37561,-0.13
37574,-1.59
37588,1.86
37601,1.01
37615,-0.56
37630,-0.94
37641,-0.29
37654,0.31
37667,0.20
37681,0.73
37694,-0.60
37707,-1.25
37721,1.86
37734,-0.02
37747,0.00
37761,-1.38
37774,-1.13
37788,2.11
37801,1.37
37814,-1.16
37828,-0.54
37841,-0.14
37854,-1.13
37868,1.24
37881,1.02
37895,-0.92
37908,-0.36
37921,0.73
37934,0.41
37948,-0.51
37961,-1.40
37974,0.08
37988,0.82
38001,2.53
38015,-1.98
38028,-2.29
38041,1.65
38054,0.78
38067,0.73
38081,-0.50
38094,-1.35
38107,-0.70
38121,0.63
38134,1.18
38147,0.44
38161,0.30
38174,-1.58
38187,-0.36
38201,0.72
38214,-0.79
38227,1.12
38241,0.35
38254,0.01
38267,-0.06
38281,-2.12
38294,-0.20
38308,2.66
38321,1.18
38334,-1.68
38348,-1.36
38361,-0.12
38374,0.04
38388,1.77
38401,0.50
38414,-1.31
38428,-0.17
38441,0.90
38454,-1.79
38468,-0.01
38481,1.73
38494,-0.45
38508,0.86
38521,-0.01
38534,-2.42
38548,0.93
38561,0.59
38574,-1.25
38588,1.50
38601,1.31
38615,-1.23
38627,-0.47
38641,-0.17
38654,-1.50
38668,-0.01
38681,2.97
38694,0.33
38708,-0.53
38721,-0.44
38734,-2.07
38748,-0.42
38761,1.97
38774,-0.11
38788,0.84
38801,0.07
38815,-0.28
38828,-1.45
38841,0.63
38854,0.13
38868,-0.50
38881,-0.61
38894,1.90
38907,0.61
38921,-0.05
38938,-1.81
38947,-1.14
38961,1.38
38974,0.52
38987,-0.17
39001,0.76
39014,-0.58
39028,-0.78
39041,0.61
39054,0.37
39068,-1.02
39081,-0.11
39094,0.99
39107,0.43
39121,0.11
39135,-1.68
39148,-0.08
39161,1.04
39174,0.09
39188,-0.07
39201,0.84
39214,-0.90
39228,-1.16
39241,0.99
39254,-0.43
39268,0.61
39281,1.63
39294,-2.39
39307,-0.11
39321,1.65
39335,-0.72
39348,-0.98
39361,-0.10
39374,1.24
39388,1.29
39401,-0.44
39414,-2.04
39427,-1.73
39441,2.16
39454,1.62
39468,1.46
39481,-2.55
39494,-2.02
39508,0.75
39521,1.72
39534,0.47
39548,-0.95
39561,-0.07
39574,-0.57
39588,-0.01
39601,1.30
39614,0.21
39627,-1.07
39641,-0.46
39654,-1.07
39668,2.83
39681,0.72
39694,-2.98
39707,-0.40
39721,2.22
39734,0.70
39748,-2.13
39761,-0.01
39774,-0.04
39787,1.36
39801,1.24
39814,-1.82
39827,-1.70
39841,0.57
39854,1.67
39868,0.69
39881,-0.70
39894,-0.98
39908,-0.58
39921,1.70
39934,-0.87
39948,-0.63
39961,0.95
39974,0.82
39988,0.07
40001,-1.09
40014,-2.26
40027,1.24
40041,3.06
40054,-0.45
40068,-2.23
40081,-0.08
40094,0.22
40107,0.38
40121,1.18
40134,-0.65
40147,-0.86
40161,0.09
40174,0.56
40188,0.17
40201,-0.45
40214,0.38
40227,-0.76
40241,0.50
40254,-0.00
40267,0.12
40281,0.23
40294,-0.11
40308,-0.60
40321,0.35
40334,-0.49
40348,-0.09
40361,1.48
40374,-0.18
40388,-1.00
40401,0.35
40414,-0.58
40427,0.31
40441,0.48
40454,-0.68
40468,0.44
40481,1.43
40494,-2.26
40508,-0.05
40521,0.79
40534,1.20
40548,-0.87
40561,-0.18
40574,-1.71
40588,0.17
40601,2.90
40614,0.55
40627,-1.74
40641,-0.84
40654,-0.50
40667,-1.20
40681,3.93
40694,0.07
40708,-1.71
40721,-1.14
40734,0.59
40748,0.40
40761,1.22
40774,-0.42
40788,-1.81
40801,0.95
40814,0.97
40827,-1.97
40841,0.99
40854,0.91
40868,-0.15
40881,0.07
40894,-1.18
40908,-0.65
40921,1.70
40934,-1.09
40948,1.00
40961,0.58
40974,-0.13
40988,-2.86
41001,1.64
41014,0.85
41028,-0.59
41041,0.78
41054,0.46
41067,-1.72
41081,-0.46
41094,0.56
41108,0.48
41121,0.94
41134,-0.65
41148,-0.69
41161,0.92
41174,-0.37
41188,-0.81
41201,0.56
41214,0.65
41227,-1.59
41241,1.33
41254,0.61
41268,-0.54
41281,-0.55
41294,-0.77
41308,0.84
41321,1.31
41334,-1.19
41348,-1.21
41361,1.31
41374,0.53
41387,-0.40
41401,0.30
41414,-0.87
41427,-0.63
41441,1.20
41454,-0.09
41467,0.34
41481,-0.59
41494,-0.17
41507,0.28
41521,1.04
41534,-1.49
41548,-0.94
41561,2.09
41574,0.91
41587,-2.84
41601,0.62
41614,0.30
41628,1.61
41641,-0.03
41654,-2.22
41668,-0.84
41681,2.11
41694,0.70
41708,-0.78
41721,-0.12
41734,-0.08
41748,-1.03
41761,0.88
41774,0.61
41788,-0.72
41801,1.17
41814,-0.78
41828,-0.45
41841,-1.38
41854,1.19
41868,2.38
41881,-0.84
41894,-1.87
41908,-0.50
41921,1.66
41934,0.09
41948,-0.74
41961,0.61
41974,-0.30
41988,-0.47
42001,0.87
42014,-0.35
42027,-0.61
42041,0.87
42054,-0.24
42068,-0.23
42081,-0.45
42094,1.03
42108,0.19
42121,-0.26
42134,-1.46
42147,-0.06
42161,1.46
42174,1.01
42188,-0.54
42201,-1.25
42214,-0.58
42227,0.29
42241,1.43
42254,-0.30
42268,-0.71
42281,0.81
42294,-0.33
42308,-0.71
42321,0.86
42334,-1.08
42347,0.91
42361,0.72
42374,-1.18
42388,-0.65
42401,1.67
42414,-0.54
42428,-0.20
42441,0.69
42454,-1.01
42468,-0.87
42481,1.37
42494,0.44
42508,-0.37
42521,0.42
42534,-0.82
42548,-0.57
42561,0.41
42574,0.68
42587,-0.19
42601,0.90
42614,-1.51
42627,-1.65
42641,3.48
42654,-0.31
42668,-1.22
42681,-0.01
42694,0.06
42708,-0.96
42721,0.88
42734,1.44
42748,-1.36
42761,0.61
42774,-0.31
42788,-0.91
42801,0.50
42814,-0.09
42827,0.05
42841,1.25
42854,-0.43
42868,-1.02
42881,0.36
42894,0.36
42908,-1.01
42921,0.67
42934,0.17
42948,0.77
42961,-0.72
42974,-0.67
42988,0.05
43001,1.15
43014,-0.59
43028,-0.81
43041,0.87
43054,0.67
43067,-1.17
43081,0.25
43094,0.03
43107,-0.01
43121,0.97
43134,-1.42
43147,-0.16
43161,1.44
43174,-0.46
43187,-0.84
43201,0.23
43214,0.77
43227,0.01
43241,-0.07
43254,-0.57
43267,-1.17
43281,1.26
43294,0.81
43308,0.03
43321,-0.47
43334,-0.55
43348,-0.42
43361,0.79
43374,0.04
43387,-1.64
43401,3.24
43414,-0.22
43427,-2.47
43441,-0.01
43454,-0.22
43467,2.08
43481,1.14
43494,-3.08
43508,-0.59
43521,3.14
43534,-0.82
43547,-1.43
43561,-0.19
43574,0.90
43587,0.59
43601,0.56
43614,-1.25
43628,-0.66
43641,-0.25
43654,2.16
43667,-0.38
43681,-0.83
43694,-1.21
43707,1.34
43721,0.06
43734,0.88
43748,-0.75
43761,0.30
43774,-1.21
43787,-0.74
43801,0.96
43814,1.47
43827,0.18
43841,-0.29
43854,-1.57
43867,-1.41
43881,2.24
43894,1.54
43907,-1.74
43921,-0.57
43934,0.07
43947,0.63
43961,0.86
43974,0.27
43987,-2.65
44001,-0.21
44014,2.65
44027,-0.15
44041,-1.05
44054,0.62
44068,-0.54
44081,-0.12
44094,0.05
44107,-0.63
44121,1.18
44134,0.34
44148,-0.45
44161,0.24
44174,-0.97
44187,-0.65
44201,1.17
44214,1.01
44228,-1.75
44241,0.61
44254,1.50
44268,-1.36
44281,-1.14
44294,-0.39
44307,1.75
44321,2.09
44334,-1.05
44348,-3.02
44361,0.37
44374,0.29
44387,1.28
44401,1.51
44414,-0.01
44428,-1.80
44441,-1.10
44454,0.03
44468,-0.65
44481,2.71
44494,1.13
44507,-1.23
44521,-0.89
44534,-1.03
44548,-0.68
44561,2.54
44574,0.42
44587,-0.71
44601,-0.72
44614,-1.22
44627,0.72
44641,3.13
44654,-1.45
44668,-2.11
44681,0.26
44694,0.32
44707,0.49
44721,1.42
44734,-0.53
44748,-1.09
44761,-0.31
44774,0.35
44787,0.29
44801,0.16
44814,-0.69
44827,0.60
44841,0.98
44854,-0.61
44868,-1.95
44881,0.85
44894,0.76
44907,1.56
44921,-1.26
44934,-1.54
44948,-0.52
44961,2.19
44974,0.67
44988,-0.96
45001,-0.38
45014,-0.18
45027,-0.86
45041,1.31
45054,-0.22
45068,1.15
45081,0.01
45094,-2.06
45107,-1.02
45121,2.82
45134,-0.58
45148,-0.51
45161,1.68
45174,-1.44
45188,-1.77
45201,1.81
45214,0.96
45227,-1.73
45241,0.49
45254,1.25
45268,-0.41
45281,-0.87
45294,-0.66
45307,-0.31
45321,1.28
45334,1.62
45347,-0.93
45361,-0.34
45374,-0.53
45388,-2.88
45401,2.80
45414,1.74
45427,-0.56
45441,-0.08
45454,-0.80
45468,-2.56
45481,1.59
45494,2.62
45507,-1.28
45521,-0.18
45534,0.04
45548,-1.16
45561,-0.19
45574,1.12
45588,0.76
45601,0.19
45614,-0.96
45627,-1.68
45641,0.97
45654,1.52
45668,-0.06
45681,-0.17
45694,-1.81
45707,0.02
45721,1.66
45734,0.67
45747,-0.42
45761,-1.29
45774,-1.21
45788,0.89
45801,2.59
45814,-0.23
45827,-1.72
45841,-1.04
45854,1.08
45867,-0.07
45881,0.54
45894,-0.27
45907,-0.28
45921,1.64
45934,-1.38
45947,-1.60
45961,1.96
45974,-0.05
45988,-0.76
46001,0.88
46014,-0.16
46027,-0.66
46041,0.59
46054,-0.39
46067,-0.39
46081,0.93
46094,0.42
46107,-1.36
46121,0.16
46134,0.85
46147,-0.60
46161,0.38
46174,-0.16
46187,-0.93
46201,1.42
46214,0.84
46228,-3.06
46241,0.54
46254,2.72
46274,-0.54
46280,-2.03
46294,0.31
46307,0.34
46321,0.96
46334,0.18
46347,-1.45
46360,0.18
46374,0.83
46387,-0.48
46401,-0.38
46414,1.11
46427,-0.21
46441,-1.36
46454,0.88
46467,-0.05
46481,1.62
46494,-1.82
46507,-1.60
46521,1.79
46534,1.04
46547,0.44
46561,-1.54
46574,-0.84
46587,-0.28
46601,2.25
46614,-0.06
46628,-1.49
46641,0.27
46654,0.13
46667,0.30
46681,0.48
46694,-0.74
46707,0.33
46721,-0.66
46734,0.06
46747,0.74
46761,-0.05
46774,-1.01
46787,0.40
46801,1.10
46814,0.99
46827,-2.80
46841,0.47
46854,-0.16
46867,-0.37
46881,1.86
46894,1.13
46907,-1.29
46921,-1.15
46934,-0.79
46947,-0.78
46961,3.35
46974,2.12
46987,-3.62
47001,-2.74
47014,2.27
47027,1.78
47041,1.28
47054,-2.60
47067,-1.81
47081,1.81
47094,1.22
47107,-0.91
47121,-0.07
47134,0.83
47147,-1.27
47161,-0.21
47174,0.09
47187,0.85
47201,0.73
47214,-0.30
47227,-0.84
47241,-1.27
47254,0.94
47267,1.12
47281,-0.22
47294,0.14
47307,-1.55
47321,0.44
47334,1.83
47347,-0.92
47361,-0.78
47374,-0.67
47387,0.52
47401,1.66
47414,0.21
47427,-2.01
47441,-0.00
47454,0.42
47467,0.75
47481,-0.39
47494,0.37
47507,-0.13
47521,-0.75
47534,-0.33
47547,0.26
47561,1.93
47574,-0.37
47587,-2.74
47601,1.30
47614,1.91
47627,-1.11
47641,-1.47
47654,0.24
47667,1.03
47681,1.16
47694,-1.16
47707,-1.02
47721,0.59
47734,0.25
47747,0.77
47761,-0.25
47774,-1.02
47787,-0.42
47801,0.50
47814,1.54
47827,-0.47
47841,-1.06
47854,0.58
47867,-0.27
47881,-0.31
47894,0.43
47907,-0.36
47920,1.36
47934,-0.60
47947,-1.16
47961,-0.11
47974,1.77
47987,-0.62
48001,-0.91
48014,1.55
48027,-0.51
48041,-1.23
48054,-0.71
48067,1.90
48081,1.43
48094,-1.21
48107,-2.29
48120,2.03
48134,0.52
48147,-1.90
48160,0.12
48174,2.09
48187,-0.39
48200,-0.58
48214,-0.83
48227,-0.30
48241,0.80
48254,2.21
48267,-2.17
48281,-0.81
48294,-0.16
48307,0.77
48320,1.61
48334,-0.02
48347,-1.59
48361,-0.16
48374,-0.63
48387,0.10
48401,2.22
48414,0.69
48428,-1.77
48441,-1.77
48454,0.24
48467,1.62
48481,1.09
48494,-0.47
48507,-0.41
48521,-1.36
48534,-0.30
48547,0.91
48561,1.49
48574,-0.12
48587,-1.98
48600,0.17
48614,1.26
48627,-0.21
48641,-0.40
48654,0.10
48667,-0.02
48681,0.28
48694,-0.30
48707,-1.12
48721,1.04
48734,1.53
48747,-1.37
48761,-0.40
48774,1.00
48787,-1.03
48801,-0.27
48814,-0.25
48827,1.52
48840,0.14
48854,0.31
48867,-1.96
48881,0.53
48894,0.82
48907,-0.94
48921,-0.46
48934,1.64
48947,0.17
48961,-0.91
48974,0.35
48987,-1.22
49001,0.49
49014,0.95
49028,-0.00
49041,-0.84
49054,0.47
49067,-0.98
49081,0.61
49094,1.96
49107,-2.24
49121,-0.24
49134,1.47
49147,-0.72
49161,-1.14
49174,1.16
49187,0.54
49201,-0.24
49214,0.36
49227,-0.99
49241,-0.64
49254,0.51
49267,0.67
49281,0.67
49294,-0.46
49307,-1.46
49321,0.18
49334,1.39
49347,0.26
49361,0.28
49374,-1.63
49387,-2.20
49401,2.15
49414,2.82
49427,-0.23
49441,-2.42
49454,-1.50
49467,0.70
49481,1.59
49494,0.76
49507,-0.45
49521,-0.84
49534,-0.42
49547,0.14
49561,0.20
49574,0.87
49587,-0.66
49601,-0.63
49614,0.95
49627,0.51
49641,-1.38
49654,0.52
49667,-1.11
49681,1.65
49694,0.97
49707,-1.43
49721,-1.07
49734,0.29
49747,-0.41
49761,2.45
49774,0.48
49787,-1.54
49801,-1.44
49814,-0.02
49827,0.94
49840,0.62
49854,0.74
49867,-1.17
49881,-0.23
49894,0.55
49907,-1.25
49921,1.24
49934,0.93
49947,-1.46
49961,-1.23
49974,2.12
49987,-0.19
50001,-0.72
50014,0.43
50027,-0.23
50040,0.96
50054,-0.39
50067,-2.10
50081,0.49
50094,1.93
50107,0.23
50121,-0.73
50134,0.18
50147,-0.97
50161,-0.75
50174,1.23
50187,0.44
50201,-0.89
50214,1.58
50227,-0.88
50241,-0.55
50254,0.09
50267,-0.69
50281,1.32
50294,0.57
50307,-1.44
50321,-0.58
50334,1.91
50347,-0.64
50360,0.40
50374,-0.82
50387,-0.71
50401,0.38
50414,1.21
50427,-0.92
50440,0.82
50454,0.85
50467,-1.98
50481,-1.52
50494,1.81
50507,1.26
50521,0.01
50534,-0.68
50547,-0.66
50561,-0.28
50574,0.30
50587,-0.24
50601,1.05
50614,0.49
50627,-0.72
50640,-1.02
50654,0.48
50667,0.75
50681,-1.42
50694,1.37
50707,0.46
50721,-0.57
50734,-1.52
50747,1.36
50761,0.37
50774,-1.38
50787,1.25
50801,0.24
50814,-0.64
50827,-0.52
50841,0.72
50854,0.27
50867,-1.08
50881,-0.19
50894,1.87
50907,-0.92
50921,-0.01
50934,0.63
50947,-1.86
50960,-0.52
50974,2.35
50987,1.37
51001,-1.96
51014,-1.07
51027,0.54
51041,-0.69
51054,1.85
51067,0.20
51081,-0.33
51094,-1.27
51107,-0.87
51120,1.61
51134,1.85
51147,-1.54
51160,-1.96
51174,1.16
51187,0.22
51201,0.79
51214,0.89
51227,-1.58
51241,-1.50
51254,1.22
51267,0.72
51281,0.11
51294,-0.09
51307,-0.37
51321,0.32
51334,-0.75
51347,-0.94
51361,1.40
51374,2.03
51387,-2.04
51401,-1.27
51414,1.24
51427,0.17
51441,-0.47
51454,0.78
51467,-0.31
51481,-0.43
51494,0.11
51507,0.12
51521,0.31
51534,0.37
51547,-1.81
51560,-0.02
51574,2.08
51587,0.23
51600,0.04
51614,-1.38
51627,-2.03
51640,0.46
51654,3.14
51667,0.65
51680,-1.42
51694,-1.16
51707,-0.83
51721,1.02
51734,1.63
51747,-1.71
51760,-0.44
51774,1.71
51787,-0.27
51800,-0.47
51814,-0.13
51827,-1.41
51841,1.78
51854,0.81
51867,-1.44
51880,-0.26
51894,1.12
51907,-0.66
51921,-0.65
51934,0.59
51947,0.92
51961,-0.15
51974,-0.20
51987,-1.34
52001,-0.26
52014,1.16
52027,1.03
52041,-0.34
52054,-0.28
52067,-1.24
52080,-0.50
52094,2.53
52107,-1.11
52120,-0.50
52134,1.11
52147,0.12
52161,-1.87
52174,0.28
52187,0.89
52200,-0.07
52214,1.44
52227,-0.88
52241,-1.79
52254,0.43
52267,0.49
52281,0.45
52294,1.10
52307,-0.83
52320,-1.06
52334,0.31
52347,-0.81
52361,2.16
52374,0.55
52387,-2.57
52401,-0.34
52414,0.99
52427,1.37
52441,0.30
52454,-1.00
52467,-1.18
52481,-0.41
52494,1.35
52507,0.19
52520,-0.22
52534,1.06
52547,-1.22
52561,-0.33
52574,1.12
52587,-1.58
52601,0.46
52614,1.13
52627,-1.18
52640,0.15
52654,2.25
52667,-1.60
52680,-1.73
52694,-0.26
52707,3.02
52720,0.23
52734,-1.85
52747,-1.15
52760,1.41
52774,0.46
52787,-0.20
52800,-0.09
52814,0.01
52827,-0.19
52840,-0.13
52854,-0.53
52867,0.31
52881,1.23
52894,0.55
52907,-1.99
52921,-1.18
52934,1.89
52947,0.90
52961,-0.54
52974,-0.05
52987,-0.87
53001,-1.16
53014,2.07
53027,0.54
53040,-1.07
53054,0.19
53067,-1.00
53080,0.64
53094,1.73
53107,-1.67
53120,-0.85
53134,1.24
53147,-0.07
53161,-0.59
53174,1.04
53187,-0.96
53200,0.77
53214,0.37
53227,-1.44
53240,-0.62
53254,1.76
53267,0.49
53280,-1.45
53294,1.05
53307,-1.00
53320,0.40
53334,0.46
53347,-1.56
53360,0.62
53374,2.15
53387,-0.72
53401,-1.73
53414,-0.32
53427,1.00
53440,0.96
53454,-0.95
53467,0.73
53481,-0.73
53494,-0.12
53507,-0.27
53521,-0.34
53534,2.22
53547,0.01
53560,-2.51
53574,0.52
53587,0.31
53600,0.78
53614,-0.47
53627,-0.14
53640,0.33
53654,0.84
53667,-1.18
53680,-1.14
53694,1.33
53707,-0.37
53721,1.10
53734,0.49
53747,-2.12
53760,-0.77
53774,2.73
53787,0.15
53801,-1.76
53814,-0.77
53827,0.95
53840,0.98
53854,0.68
53867,-1.47
53880,-1.14
53894,1.27
53907,0.35
53920,-0.40
53934,0.56
53947,-0.73
53960,0.06
53974,0.32
53987,-0.24
54001,-0.98
54014,1.43
54027,1.59
54040,-1.55
54054,-1.73
54067,-0.84
54080,1.50
54094,2.92
54107,-0.48
54120,-1.59
54134,-1.24
54147,-0.72
54160,0.91
54174,2.30
54187,-0.24
54201,-1.49
54214,0.13
54227,-0.25
54240,-0.27
54254,1.79
54267,-1.01
54280,-1.13
54294,1.29
54307,0.32
54320,-0.49
54334,-0.36
54347,0.08
54361,0.20
54374,0.06
54387,-0.03
54400,-0.16
54414,0.68
54427,-0.68
54440,-0.60
54454,1.14
54467,-0.09
54480,-0.50
54494,0.30
54507,-0.84
54520,0.62
54534,1.87
54547,-1.55
54560,-2.16
54574,1.16
54587,1.40
54600,0.75
54614,-1.06
54627,-0.26
54640,-0.47
54654,0.10
54667,-0.68
54680,0.27
54694,2.06
54707,0.00
54721,-1.36
54734,-0.14
54747,-0.77
54761,0.33
54774,1.41
54787,-1.04
54800,-0.45
54814,1.76
54827,0.09
54840,-2.06
54854,0.62
54867,0.09
54880,-0.37
54894,1.08
54907,-0.56
54920,-0.31
54934,1.98
54947,-1.48
54960,-1.35
54974,0.81
54987,0.19
55000,0.05
55014,1.17
55027,-0.45
55040,-1.32
55054,1.76
55067,-1.70
55080,-0.94
55094,1.60
55107,1.70
55120,-0.73
55134,-0.45
55147,-2.44
55160,0.36
55174,2.28
55187,0.65
55200,-0.70
55214,-0.14
55227,-1.24
55240,-0.72
55254,1.45
55267,0.45
55280,-0.26
55294,0.63
55307,-0.71
55320,-0.84
55334,0.83
55347,-0.14
55360,-0.55
55374,1.73
55387,-1.62
55400,-0.47
55414,2.23
55427,-0.47
55440,-1.58
55454,-0.74
55467,1.47
55481,1.37
55494,0.28
55507,-2.24
55520,-1.40
55534,1.76
55547,1.04
55560,-0.16
55574,0.25
55587,-1.05
55600,-0.83
55614,0.92
55627,1.01
55640,-2.34
55654,1.65
55667,1.57
55680,-1.70
55694,-1.41
55707,0.02
55720,2.19
55734,0.91
55747,-2.08
55760,-0.93
55774,1.36
55787,-0.65
55800,0.33
55814,1.48
55827,-0.77
55840,-1.41
55854,0.61
55867,0.14
55881,-0.09
55894,0.92
55907,-0.52
55920,-0.61
55934,0.20
55947,0.49
55960,-0.10
55974,0.44
55987,-1.57
56000,0.25
56014,1.70
56027,0.28
56040,-2.70
56054,0.88
56067,1.08
56080,-0.08
56094,0.08
56107,-1.06
56120,-0.47
56134,1.46
56147,0.08
56160,-0.86
56174,0.99
56187,-0.51
56200,-1.55
56214,1.18
56227,0.95
56240,-0.15
56254,0.00
56267,-1.27
56280,-0.63
56294,1.56
56307,0.36
56320,-0.51
56334,0.45
56347,-0.68
56360,-0.66
56374,0.99
56387,-0.10
56401,-0.46
56414,1.00
56427,-0.83
56440,-0.58
56454,1.88
56467,-0.47
56480,-1.54
56494,-0.19
56507,1.19
56520,1.07
56534,-0.63
56547,-1.52
56560,1.24
56574,0.43
56587,-1.03
56600,-1.52
56614,2.22
56627,1.05
56640,-0.87
56654,-0.36
56667,-1.10
56680,0.39
56694,0.79
56707,-0.39
56720,-0.12
56734,1.08
56747,0.11
56760,-1.83
56774,0.19
56787,0.51
56800,0.44
56814,0.86
56827,-1.04
56840,-0.95
56854,0.50
56867,0.22
56880,0.78
56894,0.59
56907,-1.68
56920,-1.14
56934,1.35
56947,2.03
56960,-1.77
56974,-0.59
56987,0.33
57000,0.05
57014,0.92
57027,-0.26
57040,-0.77
57054,0.05
57067,-1.20
57080,1.35
57094,1.97
57107,-0.66
57120,-1.73
57134,-0.05
57147,-0.19
57160,-0.57
57174,2.27
57187,0.28
57200,-0.64
57214,-0.84
57227,-0.86
57240,0.52
57254,1.87
57267,-0.52
57280,-1.49
57294,0.08
57307,1.36
57320,-1.11
57334,-0.43
57347,1.94
57360,-0.05
57374,-0.64
57387,-1.54
57400,-0.28
57414,1.94
57427,0.34
57440,-0.76
57454,0.17
57467,0.06
57481,-1.19
57494,0.64
57507,0.36
57520,0.03
57534,0.65
57547,-0.92
57560,-0.87
57574,1.26
57587,-0.49
57600,0.45
57614,0.28
57627,0.21
57640,-1.57
57654,-0.03
57667,1.07
57680,-0.08
57694,0.69
57707,-0.52
57720,-0.77
57734,0.45
57747,0.23
57760,-1.07
57774,0.81
57787,0.65
57800,-0.82
57814,1.76
57827,-1.42
57840,-1.70
57854,0.68
57867,1.07
57880,1.20
57894,0.21
57907,-2.30
57920,-1.34
57933,1.92
57947,1.09
57960,-0.31
57974,0.05
57987,-1.11
58000,-0.70
58014,1.27
58027,0.16
58040,-0.26
58053,0.23
58067,-0.46
58080,0.38
58094,0.51
58107,-0.74
58120,-1.59
58133,1.30
58147,1.06
58160,0.72
58174,-0.72
58187,-1.95
58200,-0.36
58213,2.10
58227,0.38
58240,-0.90
58253,0.25
58267,-0.47
58280,-0.34
58294,1.08
58307,-0.43
58320,-0.04
58333,0.09
58347,-0.50
58360,-0.42
58374,1.52
58387,0.59
58400,-1.39
58413,-0.63
58427,-0.46
58440,0.68
58453,1.99
58467,-0.37
58480,-1.51
58494,-0.07
58507,0.35
58520,-0.73
58534,0.94
58547,0.54
58560,-0.47
58574,-0.15
58587,0.54
58600,-0.03
58614,-1.06
58627,-1.81
58640,1.87
58653,3.09
58667,-0.27
58680,-3.56
58694,-0.73
58707,0.86
58720,2.06
58733,0.60
58747,-1.68
58760,-0.97
58774,1.40
58787,0.09
58800,-0.61
58814,-0.13
58827,0.38
58840,0.23
58854,-0.16
58867,-0.25
58880,-0.18
58894,0.81
58907,-0.70
58920,0.23
58933,-0.24
58947,0.14
58960,0.40
58973,0.02
58987,-0.44
59000,-0.52
59014,0.76
59027,-0.25
59040,-0.25
59053,1.13
59067,-0.36
59080,-0.92
59094,0.40
59107,0.67
59120,-2.29
59133,2.05
59147,1.09
59160,-1.02
59173,-1.57
59187,1.32
59200,-0.44
59214,-0.19
59227,0.88
59240,0.64
59254,-0.59
59267,-1.26
59280,0.13
59294,0.60
59307,-0.20
59320,0.30
59334,1.43
59347,-0.78
59360,-1.43
59373,-0.29
59387,0.76
59400,0.54
59414,0.38
59427,0.30
59440,-2.10
59454,0.61
59467,0.46
59480,1.14
59494,0.55
59507,-2.23
59520,-1.62
59534,1.62
59547,1.99
59560,-0.43
59574,-0.84
59587,-0.10
59600,-0.07
59614,0.36
59627,-1.00
59640,-0.38
59654,1.75
59667,0.32
59680,-0.77
59694,0.18
59707,-0.89
59720,0.13
59734,0.50
59747,-0.41
59760,0.21
59774,0.55
59787,0.75
59800,-1.53
59814,-0.40
59827,0.11
59840,0.02
59854,2.18
59867,-0.37
59880,-1.94
59894,-0.06
59907,0.18
59920,0.51
59934,1.35
59947,-0.66
59960,-1.05
59974,-0.09
59987,0.54
60000,0.13
60014,0.32
60027,-0.25
60040,-1.17
60054,0.85
60067,1.20
60080,-0.89
60094,-0.12
60107,-0.53
60120,-0.13
60133,1.19
60147,-0.34
60160,-0.72
60173,0.85
60187,-0.18
60200,-0.52
60214,0.60
60227,0.39
60240,-1.91
60254,1.05
60267,1.38
60280,-1.16
60294,-0.45
60307,0.42
60320,-0.52
60333,1.49
60347,-0.84
60360,-0.76
60374,0.52
60387,0.70
60400,-0.35
60414,-0.06
60427,-0.93
60440,0.05
60454,1.10
60467,0.70
60480,-0.49
60494,-1.15
60507,0.37
60520,-1.24
60533,2.23
60547,-0.12
60560,-1.04
60573,0.83
60587,-0.64
60600,-0.53
60614,1.52
60627,0.19
60640,-2.88
60654,1.01
60667,1.59
60680,0.48
60694,-0.68
60707,-0.89
60720,-0.50
60734,0.74
60747,0.43
60760,-1.06
60774,1.65
60787,-1.16
60800,0.78
60813,-0.09
60827,-0.87
60840,0.27
60853,-0.54
60867,0.78
60880,0.13
60893,0.11
60907,0.16
60920,-0.35
60933,0.12
60947,-1.02
60960,-0.35
60974,1.70
60987,0.56
61000,-2.04
61014,1.64
61027,-0.04
61040,-0.82
61053,-1.53
61067,1.20
61080,1.29
61094,-0.25
61107,0.26
61120,-0.60
61133,-0.65
61147,-0.56
61160,-0.48
61173,2.00
61187,0.93
61200,-0.62
61214,-0.41
61227,-1.42
61240,-0.44
61253,1.04
61267,1.03
61280,0.48
61294,-0.09
61307,-2.37
61320,-0.41
61334,2.53
61347,1.24
61360,-2.17
61374,-0.73
61387,-0.49
61400,0.87
61414,2.60
61427,-0.93
61440,-2.46
61453,0.20
61467,0.78
61480,0.85
61494,0.33
61507,-0.44
61520,-0.77
61533,-0.56
61547,0.90
61560,-0.25
61573,0.64
61587,-0.01
61600,-0.91
61614,1.42
61627,-0.26
61640,-1.81
61653,-0.23
61667,2.19
61680,-0.06
61693,0.28
61707,-2.03
61720,-0.12
61733,1.96
61747,-0.10
61760,-0.99
61773,-0.06
61787,0.16
61800,-0.34
61814,1.48
61827,-0.10
61840,-1.80
61854,0.09
61867,-0.17
61880,1.77
61893,1.25
61907,-1.70
61920,-1.45
61933,0.93
61947,-0.31
61960,-1.09
61973,2.44
61987,1.18
62000,-1.70
62014,-0.60
62027,-0.54
62040,-0.19
62053,1.89
62067,-0.90
62080,-0.90
62094,1.39
62107,0.84
62120,-0.76
62133,-1.58
62147,-0.39
62160,1.30
62173,2.22
62187,-0.88
62200,-3.40
62213,0.98
62227,1.21
62240,1.11
62254,0.32
62267,-0.88
62280,-1.52
62293,0.03
62307,-0.07
62320,0.60
62333,1.71
62347,0.53
62360,-2.53
62373,-0.30
62387,1.26
62400,-0.47
62413,0.66
62427,-0.56
62440,-1.46
62454,2.78
62467,-0.68
62480,-0.76
62494,0.73
62507,-0.61
62520,-0.85
62533,0.96
62547,0.13
62560,-0.24
62573,0.82
62587,-0.56
62600,-0.79
62614,0.66
62627,0.46
62640,-0.82
62654,-0.93
62667,2.24
62680,0.08
62694,-0.83
62707,-1.38
62720,-0.58
62733,2.86
62747,0.38
62760,-0.96
62773,-1.84
62787,-0.01
62800,1.36
62813,1.60
62827,-1.19
62840,-1.59
62853,0.81
62867,0.35
62880,-0.10
62894,0.61
62907,-0.14
62920,-0.64
62933,-1.11
62947,2.30
62960,-1.43
62974,0.65
62987,0.83
63000,-0.92
63013,-0.51
63027,-1.41
63040,1.46
63053,1.95
63067,-0.07
63080,-1.78
63093,-0.50
63107,-0.38
63120,0.47
63133,1.80
63147,-0.23
63160,-1.32
63173,0.93
63187,-1.06
63200,-0.68
63213,1.69
63227,0.24
63240,-0.16
63253,-0.56
63267,-0.89
63280,-0.39
63293,2.44
63307,0.93
63320,-3.20
63333,-0.01
63347,0.93
63360,0.57
63374,0.70
63387,-1.07
63400,-0.78
63413,0.43
63427,0.73
63440,0.06
63453,-0.33
63467,-0.97
63480,0.67
63494,1.36
63507,-1.24
63520,-0.60
63533,0.50
63547,0.06
63560,0.36
63573,0.35
63587,-0.29
63600,-0.73
63613,-0.37
63627,0.52
63640,-0.13
63653,1.66
63667,-0.49
63680,-1.54
63694,0.32
63707,0.09
63720,0.27
63733,0.43
63747,0.09
63760,-0.24
63774,-0.93
63787,-0.00
63800,1.24
63814,0.64
63827,-1.14
63840,-1.83
63853,1.41
63867,1.35
63880,0.17
63894,-0.83
63907,-0.93
63920,-0.43
63934,1.09
63947,0.00
63960,-0.16
63973,0.95
63987,0.18
64000,-1.72
64014,-0.06
64027,0.91
64040,-0.35
64053,0.76
64067,-0.89
64080,0.31
64093,1.01
64107,-0.33
64120,-2.46
64133,0.81
64147,2.18
64160,0.40
64173,-1.47
64187,-1.25
64200,0.21
64214,0.89
64227,1.28
64240,-1.18
64253,0.36
64267,-0.96
64280,-0.61
64293,1.20
64307,1.76
64320,-0.82
64333,-2.20
64347,-0.65
64360,1.32
64373,2.33
64387,-0.33
64400,-2.30
64414,0.76
64427,0.25
64440,-1.36
64453,1.29
64467,0.39
64480,-0.51
64493,0.50
64507,-0.46
64520,-0.31
64533,0.13
64547,0.93
64560,-0.70
64573,-1.69
64587,2.46
64600,-0.08
64613,-1.01
64627,-0.70
64640,1.34
64653,1.17
64667,-1.01
64680,-2.91
64694,1.06
64707,2.68
64720,0.58
64733,-1.68
64747,-1.52
64760,0.13
64773,0.98
64787,1.40
64800,-0.83
64814,-1.12
64827,0.99
64840,-0.84
64853,0.69
64867,1.09
64880,-2.15
64893,-0.12
64907,0.96
64920,1.25
64934,-0.79
64947,0.29
64960,-1.37
64973,-0.41
64987,0.72
65000,0.24
65013,1.35
65027,-0.25
65040,-0.98
65054,-0.60
65067,0.17
65080,-0.18
65093,0.36
65107,1.28
65120,-0.25
65133,-0.75
65147,-0.66
65160,-0.45
65173,0.89
65187,1.92
65200,-0.83
65213,-1.87
65227,0.24
65240,0.23
65253,0.34
65267,1.28
65280,-0.67
65293,-0.40
65307,-0.13
65320,-0.83
65333,0.96
65347,0.28
65360,-0.09
65373,-0.25
65387,0.52
65400,-0.99
65413,0.20
65427,0.18
65440,-0.22
65454,1.00
65467,0.88
65480,-1.90
65493,-1.59
65507,1.54
65520,0.94
65533,0.79
65547,-1.05
65560,-0.87
65573,0.18
65587,0.50
65600,-0.09
65613,0.24
65626,-0.27
65640,-0.36
65653,0.36
65667,0.08
65680,0.23
65693,0.81
65707,-1.22
65720,-1.14
65733,0.43
65747,1.22
65760,0.41
65773,0.21
65787,-1.37
65800,-0.80
65813,1.24
65827,0.84
65840,-1.28
65853,-0.02
65867,1.03
65880,-1.84
65893,1.85
65907,0.50
65920,-1.45
65933,-0.65
65947,1.10
65960,-0.79
65974,0.70
65987,1.18
66000,-0.72
66013,-1.01
66027,-0.17
66040,0.38
66053,0.14
66067,0.72
66080,-0.63
66093,-0.46
66107,1.19
66120,-0.41
66133,0.04
66147,-1.47
66160,0.50
66173,1.82
66187,-0.71
66200,-1.40
66213,0.65
66227,1.30
66240,-1.78
66253,0.32
66267,1.87
66280,-0.59
66293,-1.63
66307,-0.80
66320,0.24
66333,2.59
66347,0.71
66360,-1.30
66374,-1.10
66387,0.35
66400,-2.80
66414,2.54
66427,2.36
66440,-0.20
66453,-2.47
66467,-0.33
66480,0.66
66493,1.14
66507,-1.53
66520,0.24
66533,1.20
66547,0.37
66560,-1.57
66573,-0.25
66587,1.20
66600,-0.53
66614,-0.71
66627,1.23
66640,0.16
66653,-0.45
66667,-0.27
66680,-0.02
66693,-0.01
66707,-0.03
66720,-0.07
66733,0.54
66747,0.60
66760,-1.13
66773,-1.06
66787,1.31
66800,0.88
66813,0.37
66827,-1.26
66840,-1.50
66853,0.06
66867,1.48
66880,1.12
66893,0.57
66907,-1.73
66920,-1.31
66933,0.42
66947,1.23
66960,-0.42
66973,0.93
66987,-0.70
67000,-0.74
67014,-0.54
67027,2.21
67040,0.03
67054,-1.61
67067,-0.05
67080,-0.05
67093,0.45
67107,0.66
67120,-0.02
67133,-0.03
67147,-0.61
67160,-1.13
67173,0.40
67187,2.33
67200,-0.83
67214,-0.86
67227,0.41
67240,-0.94
67253,-0.04
67267,1.62
67280,-1.52
67293,0.96
67307,1.19
67320,-1.47
67333,-0.70
67347,-0.40
67360,0.56
67373,1.70
67387,-0.43
67400,-1.04
67414,-0.32
67427,1.12
67440,-0.45
67453,-0.61
67467,0.31
67480,0.65
67493,-0.23
67507,0.96
67520,-2.38
67533,-0.30
67547,3.29
67560,-1.32
67573,-0.45
67587,-0.46
67600,0.12
67613,0.32
67627,0.88
67642,-1.00
67653,-0.01
67667,-0.18
67680,0.35
67693,0.53
67707,0.12
67720,-1.39
67733,0.71
67747,0.79
67760,-2.25
67773,0.65
67787,2.71
67800,0.01
67813,-2.46
67827,-1.48
67840,1.03
67853,1.74
67867,1.30
67880,-1.69
67893,-1.03
67907,0.17
67920,-0.03
67933,0.43
67946,1.56
67960,-1.49
67973,0.16
67987,-0.37
68000,-0.39
68013,1.21
68027,-0.74
68040,0.38
68053,0.36
68067,0.26
68080,-1.47
68093,-0.57
68106,1.12
68120,1.05
68133,0.55
68146,-1.68
68160,-1.23
68173,1.38
68187,0.53
68200,-0.32
68213,0.35
68226,-0.05
68240,-1.33
68253,0.48
68267,1.09
68280,-0.60
68293,-0.06
68307,0.86
68320,-1.67
68333,0.18
68347,0.82
68360,0.17
68373,0.01
68387,0.38
68400,-0.78
68413,-1.10
68427,0.13
68440,1.27
68453,0.97
68467,-0.10
68480,-1.83
68493,0.42
68507,0.41
68520,-1.03
68533,-0.07
68547,2.23
68560,-0.32
68573,-1.08
68587,0.44
68600,-0.74
68613,-0.07
68627,0.19
68640,0.11
68653,1.00
68667,-0.27
68680,-1.13
68693,0.65
68707,1.21
68720,-1.62
68733,-0.85
68746,0.71
68760,0.42
68773,1.35
68787,-0.38
68800,-1.32
68813,0.50
68827,0.23
68840,-2.45
68853,1.24
68867,2.65
68880,0.84
68893,-2.25
68907,-3.07
68920,0.85
68933,3.40
68947,-0.24
68960,-1.41
68973,0.34
68987,0.46
69000,-1.94
69013,0.30
69027,1.66
69040,-0.31
69053,0.39
69067,-0.25
69080,-2.17
69093,0.81
69107,1.96
69120,0.12
69133,-1.07
69147,-0.51
69160,-1.46
69173,0.66
69187,2.95
69200,-0.03
69213,-1.26
69226,-1.87
69240,-0.77
69253,2.23
69267,1.59
69280,-0.78
69293,-1.71
69307,0.26
69320,0.29
69333,-0.55
69347,2.50
69360,-0.93
69373,-1.73
69387,-0.85
69400,2.64
69413,0.46
69427,-1.57
69440,-0.19
69453,-0.26
69467,1.12
69480,-0.03
69493,-0.49
69507,0.60
69520,-0.81
69534,0.10
69547,-0.27
69560,0.32
69573,0.54
69587,0.96
69600,-1.88
69613,-0.48
69627,1.68
69640,-0.85
69653,-0.05
69666,0.54
69680,0.12
69693,-0.43
69707,-0.18
69720,-0.67
69733,1.50
69746,0.49
69760,-1.91
69773,-0.12
69787,1.38
69800,-0.58
69813,0.32
69827,1.17
69840,-2.00
69853,-0.78
69867,1.57
69880,0.07
69893,0.27
69907,-0.60
69920,-0.09
69933,0.42
69947,0.08
69960,-0.47
69973,-0.56
69987,0.79
70000,-0.31
70013,0.62
70027,-0.04
70040,-0.77
70053,0.78
70067,0.45
70080,-1.56
70093,-0.13
70107,0.92
70120,-0.13
70133,0.66
70147,0.19
70160,-0.69
70173,-0.85
70186,0.84
70200,-0.92
70213,1.49
70226,-0.15
70240,-1.42
70253,1.99
70266,-0.13
70280,-2.44
70293,0.10
70307,2.43
70320,0.09
70333,-1.31
70347,0.19
70360,-0.44
70373,0.40
70387,0.34
70400,-0.88
70413,0.57
70427,0.65
70440,-0.28
70453,-0.65
70467,-0.15
70480,0.23
70493,0.99
70507,-0.56
70520,-1.14
70533,0.73
70547,0.73
70560,-0.13
70573,0.58
70587,-1.60
70600,-1.12
70613,0.92
70627,2.65
70640,-0.85
70653,-0.87
70667,-0.41
70680,-0.27
70693,0.08
70707,-0.29
70720,1.12
70733,1.52
70747,-1.90
70760,-1.26
70773,0.79
70787,1.85
70800,-1.21
70813,-0.47
70827,0.04
70840,-1.27
70853,2.11
70867,1.02
70880,-0.98
70893,-0.65
70907,-0.97
70920,-0.58
70933,1.73
70946,1.93
70960,-1.46
70973,-1.97
70987,0.87
71000,0.70
71013,0.04
71027,0.71
71040,-1.57
71053,0.15
71067,0.31
71080,0.22
71093,0.62
71107,-0.42
71120,-0.88
71133,-0.22
71147,1.44
71160,-0.04
71173,-0.58
71187,-0.14
71200,0.14
71213,-0.20
71227,0.77
71240,-1.95
71253,1.24
71267,1.58
71280,-0.68
71293,-0.93
71307,-1.03
71320,-0.30
71333,2.70
71347,1.16
71360,-3.05
71373,-1.04
71387,2.03
71400,0.40
71413,-0.89
71427,0.40
71440,-0.25
71453,-0.11
71466,0.28
71480,0.03
71493,0.42
71507,-0.86
71520,-1.07
71533,1.51
71547,1.56
71560,-2.14
71573,0.60
71587,-0.25
71600,-0.52
71613,-0.59
71627,2.29
71640,0.25
71653,-1.53
71666,-0.07
71680,-1.09
71693,1.68
71707,0.48
71720,-0.64
71733,-0.79
71746,1.28
71760,-0.40
71773,-1.56
71787,1.20
71800,0.81
71813,0.27
71827,-0.14
71840,-2.22
71853,-1.19
71867,4.13
71880,0.54
71893,-2.26
71907,-0.73
71920,0.46
71933,0.45
71947,0.43
71960,-1.08
71973,0.78
71987,1.51
72000,-1.46
72013,-1.74
72027,0.36
72040,1.48
72053,1.66
72066,-1.90
72080,-0.74
72093,0.21
72107,1.50
72120,-0.96
72133,-1.83
72147,1.89
72160,-0.01
72173,1.95
72187,-1.03
72200,-2.60
72213,-0.02
72227,0.91
72240,1.38
72253,0.62
72266,0.16
72280,-1.88
72293,-1.35
72307,1.51
72320,0.03
72333,0.59
72346,0.88
72360,-0.64
72373,-2.07
72387,0.67
72400,0.88
72413,1.24
72427,-1.04
72440,-0.46
72453,-0.83
72466,0.90
72480,0.22
72493,-0.10
72507,0.81
72520,-0.72
72533,-0.90
72547,0.86
72560,-0.20
72573,0.13
72586,0.84
72600,-1.44
72613,-0.48
72627,1.97
72640,0.15
72653,-1.48
72666,0.72
72680,-1.83
72693,1.07
72706,1.90
72720,-1.24
72733,-0.34
72746,0.33
72760,-0.13
72773,-0.68
72787,0.53
72800,-0.15
72813,0.03
72827,1.41
72840,-1.14
72853,-0.60
72866,1.51
72880,-1.60
72893,-0.39
72906,0.53
72920,1.26
72933,0.39
72947,-0.15
72960,-1.88
72973,-0.94
72987,1.80
73000,0.61
73013,0.28
73027,-0.37
73040,-1.25
73053,-0.16
73066,1.64
73080,-0.20
73093,-1.07
73106,0.66
73120,-0.76
73133,0.66
73146,0.76
73160,-0.47
73173,-0.36
73186,-0.18
73200,-1.24
73213,1.26
73226,2.42
73240,-1.78
73253,-1.57
73266,0.91
73280,-0.56
73293,0.56
73307,1.56
73320,-0.79
73333,-1.39
73347,0.66
73360,0.12
73373,-0.18
73387,0.83
73400,-0.54
73413,-0.70
73426,0.91
73440,-0.15
73453,-0.49
73467,0.81
73480,-0.37
73493,-0.61
73507,0.85
73520,-0.26
73533,-0.53
73546,0.87
73560,-0.29
73573,-0.57
73587,0.84
73600,-0.30
73613,-0.26
73626,-0.28
73640,0.42
73653,1.03
73667,-0.68
73680,-0.70
73693,-1.10
73707,1.34
73720,0.93
73733,-0.00
73746,0.15
73760,-1.59
73773,-0.38
73786,0.65
73800,0.11
73813,0.40
73827,1.30
73840,-0.85
73853,-1.47
73866,0.33
73880,0.87
73893,-1.30
73907,1.26
73920,1.00
73933,-0.84
73946,-0.97
73960,-1.20
73973,1.82
73987,1.49
74000,-0.12
74013,-2.66
74027,-0.33
74040,0.89
74053,1.27
74066,1.26
74080,-1.38
74093,-1.58
74107,0.15
74120,0.35
74133,1.30
74146,0.22
74160,-0.82
74173,-1.37
74187,1.14
74200,0.49
74213,0.25
74227,0.07
74240,-1.40
74253,-1.29
74266,2.58
74280,0.96
74293,-1.27
74307,-0.52
74320,-0.66
74333,0.15
74346,1.60
74360,-0.22
74373,-0.98
74387,0.49
74400,-0.31
74413,-0.21
74427,0.21
74440,1.05
74453,-0.76
74466,-0.79
74480,0.18
74493,1.23
74506,0.09
74520,-1.56
74533,-0.39
74546,1.87
74560,0.10
74573,-1.11
74586,0.19
74600,-0.35
74613,-0.13
74627,1.22
74640,-0.28
74653,-0.79
74666,0.65
74680,-0.33
74693,-0.48
74706,0.94
74720,-0.25
74733,-0.57
74746,0.98
74760,-0.95
74773,0.26
74786,0.43
74800,0.47
74813,-1.44
74827,0.09
74840,0.31
74853,0.51
74866,1.05
74880,-1.05
74893,-1.32
74908,0.80
74920,0.22
74933,0.07
74946,0.28
74960,0.16
74973,-0.43
74986,0.20
75000,-0.83
75013,-0.30
75026,1.69
75040,-0.61
75053,-0.15
75066,0.76
75080,-1.05
75093,-0.85
75106,0.63
75120,1.15
75133,0.10
75146,-0.07
75160,-1.40
75173,-0.75
75187,2.45
75200,-1.01
75213,-0.37
75227,1.31
75240,-0.72
75253,-0.62
75266,-0.05
75280,-0.20
75293,0.72
75306,0.90
75320,0.03
75333,-1.81
75346,0.41
75360,0.55
75373,-0.98
75387,0.78
75400,0.57
75413,0.07
75426,0.52
75440,-1.83
75453,-1.03
75466,2.32
75480,0.29
75493,-1.15
75506,-0.36
75520,0.79
75533,0.80
75546,-1.12
75560,0.53
75573,-0.81
75586,0.00
75600,-0.04
75613,-0.16
75626,2.23
75640,-0.26
75653,-1.84
75666,-0.87
75680,0.76
75693,0.80
75706,1.56
75720,-1.84
75733,-1.43
75746,1.68
75760,0.72
75773,-0.69
75787,-0.34
75800,0.34
75813,-0.96
75826,0.19
75840,0.10
75853,1.68
75866,0.98
75880,-1.82
75893,-3.05
75907,1.12
75920,1.51
75933,1.88
75946,0.68
75960,-2.61
75973,-2.20
75987,1.35
76000,1.29
76013,0.50
76027,-0.11
76040,-0.45
76053,-0.51
76066,-0.26
76080,0.30
76093,-0.41
76106,1.61
76120,-0.45
76133,-0.66
76147,-0.27
76160,-0.36
76173,0.55
76186,1.58
76200,-0.77
76213,-1.53
76226,0.49
76240,0.16
76253,0.09
76266,1.09
76280,-0.52
76293,-0.77
76306,-0.14
76320,1.07
76333,-0.71
76346,0.03
76360,-0.28
76373,0.18
76386,1.26
76400,-0.63
76413,-1.15
76426,0.66
76440,-0.03
76453,-0.21
76467,0.97
76480,-0.41
76493,-0.73
76506,0.78
76520,-0.26
76533,-0.50
76546,1.04
76560,-0.93
76573,0.10
76586,1.22
76600,-1.01
76613,-0.35
76626,-0.14
76640,-0.01
76653,1.36
76666,0.85
76680,-1.41
76693,-2.47
76707,1.11
76720,1.72
76733,0.67
76746,0.13
76760,-1.81
76773,-1.25
76787,1.36
76800,0.61
76813,0.18
76826,-0.63
76840,0.64
76853,-0.21
76866,0.54
76880,-2.65
76893,0.20
76907,3.09
76920,0.51
76933,-2.51
76946,-0.01
76960,0.65
76973,-0.93
76986,0.59
77000,0.45
77013,0.25
77027,0.67
77040,-1.21
77053,-1.34
77066,1.68
77080,-0.33
77093,-0.67
77107,2.16
77120,-1.17
77133,-1.33
77146,1.79
77160,-0.10
77173,-1.36
77186,-0.34
77200,0.90
77213,1.49
77226,-0.15
77240,-1.92
77253,-0.59
77266,2.03
77280,-0.44
77293,-0.33
77306,0.65
77320,-0.87
77333,-0.74
77346,1.34
77360,0.14
77373,0.14
77386,-0.28
77400,-1.13
77413,0.06
77427,1.04
77440,0.51
77453,-0.53
77466,-0.88
77480,0.56
77493,-0.33
77507,0.70
77520,-0.13
77533,-0.28
77546,0.75
77560,-0.75
77573,-0.87
77586,0.99
77600,0.27
77613,-0.77
77626,0.85
77640,0.54
77653,-0.93
77666,-0.34
77680,-0.48
77693,-0.31
77706,2.67
77720,-0.64
77733,-0.52
77746,-0.69
77760,-1.11
77773,0.59
77786,1.67
77800,0.68
77813,-1.08
77826,-0.65
77840,-1.01
77853,0.13
77866,1.85
77880,0.79
77893,-1.70
77906,-0.23
77920,-0.03
77933,0.21
77946,1.02
77960,-0.88
77973,-0.40
77986,0.96
78000,-0.99
78013,-0.23
78027,1.86
78040,-0.10
78053,-1.47
78066,-0.05
78080,-0.24
78093,0.22
78106,1.50
78119,-0.43
78133,-0.35
78146,-0.24
78159,-0.78
78173,0.14
78186,1.63
78199,-0.36
78213,-1.18
78226,0.18
78240,1.20
78253,-1.34
78266,-0.37
78280,1.51
78293,0.10
78306,0.50
78320,-1.71
78333,-1.46
78346,1.49
78360,1.11
78373,0.17
78386,0.38
78400,-1.28
78413,-1.14
78426,0.99
78440,0.22
78453,-0.17
78466,0.77
78480,0.35
78493,-2.07
78506,1.20
78520,0.15
78533,-0.30
78546,0.55
78560,-0.22
78573,-1.00
78586,0.45
78600,0.11
78613,0.29
78626,1.19
78640,-0.80
78653,-1.34
78666,0.52
78680,0.00
78693,0.11
78706,0.51
78720,0.19
78733,0.08
78746,0.06
78760,-1.85
78773,-0.66
78786,2.73
78800,1.55
78813,-1.77
78826,-1.84
78840,-0.47
78853,1.05
78866,1.62
78880,0.27
78893,-1.21
78906,0.80
78920,-0.93
78933,-1.52
78946,0.81
78960,0.82
78973,0.58
78986,1.12
79000,-1.75
79013,-0.76
79026,1.13
79040,-1.15
79053,0.01
79066,1.65
79080,-0.10
79093,-1.80
79106,1.95
79120,-0.46
79133,-1.36
79146,0.74
79160,0.31
79173,-0.15
79186,0.66
79200,-0.71
79213,-0.70
79227,1.05
79240,-0.04
79253,-0.51
79266,0.72
79280,-0.43
79293,-0.60
79306,0.90
79320,-0.22
79333,-0.37
79346,0.21
79359,0.36
79373,-0.20
79386,0.28
79400,-0.88
79413,-0.38
79426,1.48
79440,-0.13
79453,-0.17
79466,-0.27
79480,-0.86
79493,0.14
79506,1.69
79520,-0.49
79533,-0.42
79546,-0.89
79559,0.18
79573,0.81
79587,0.94
79600,-0.37
79613,-2.57
79626,1.49
79640,0.45
79653,1.08
79666,-0.39
79680,-2.16
79693,0.39
79707,0.95
79720,0.80
79733,-0.13
79746,-0.05
79760,-1.40
79773,-0.67
79786,1.67
79800,0.47
79813,-0.51
79826,0.37
79840,-0.74
79853,-0.50
79866,0.40
79880,0.76
79893,-0.89
79906,1.58
79920,-1.25
79933,-1.38
79946,1.43
79960,0.79
79973,-0.35
79986,0.10
80000,-1.05
80013,-0.60
80026,1.36
80040,0.18
80053,-0.02
80066,-1.31
80080,1.48
80093,0.48
80106,-0.77
80119,-1.96
80133,0.18
80146,1.80
80160,2.60
80173,-2.32
80186,-1.67
80200,-0.99
80213,1.90
80226,2.28
80240,-1.38
80253,-2.13
80266,0.77
80280,0.96
80293,-0.42
80306,1.29
80320,-0.65
80333,-1.55
80346,0.39
80360,0.27
80373,0.33
80386,1.02
80399,0.28
80413,-3.10
80426,1.42
80440,1.98
80453,-2.12
80466,-0.19
80480,1.00
80493,-0.52
80506,1.16
80520,-0.95
80533,-0.73
80546,1.30
80560,-0.08
80573,-0.92
80586,0.44
80599,-0.23
80613,-0.13
80626,1.18
80640,-0.34
80653,-1.01
80666,1.25
80680,-1.15
80693,-0.02
80706,0.23
80720,0.66
80733,0.20
80746,0.21
80760,-1.25
80773,-1.43
80786,2.13
80800,1.65
80813,-2.38
80826,-0.10
80840,1.00
80853,-0.65
80866,0.25
80880,-0.20
80893,-0.02
80906,1.16
80920,-1.32
80933,-0.11
80946,0.62
80960,0.15
80973,-0.54
80986,0.42
80999,-0.29
81013,-0.86
81026,1.89
81040,0.04
81053,-1.33
81066,-0.66
81079,0.61
81093,0.70
81106,0.81
81120,-1.11
81133,-0.95
81146,1.17
81160,0.12
81173,-0.54
81186,0.73
81199,-1.12
81213,0.17
81226,1.41
81240,-0.74
81253,-1.17
81266,0.94
81280,0.27
81293,-0.11
81306,-0.18
81320,0.61
81333,-1.03
81346,0.07
81360,-0.07
81373,0.33
81386,1.26
81399,-0.72
81413,-1.21
81426,0.64
81440,-0.01
81453,-0.34
81466,1.63
81480,-1.08
81493,-1.11
81506,1.48
81520,-0.17
81533,-0.65
81546,1.47
81560,-1.42
81573,-0.78
81586,1.25
81600,0.14
81613,-0.36
81626,0.83
81640,-0.50
81653,-0.70
81666,0.01
81680,0.42
81693,-0.12
81706,1.01
81719,-0.82
81733,-1.52
81746,1.51
81760,1.22
81773,-1.23
81786,0.96
81800,-1.51
81813,-1.70
81826,1.18
81840,2.97
81853,0.09
81866,-1.84
81880,-1.70
81893,-0.58
81906,2.46
81920,1.20
81933,-0.70
81946,-0.52
81959,-1.37
81973,-0.45
81986,1.75
82000,0.44
82013,-0.35
82026,-0.38
82040,0.59
82053,-1.16
82066,0.51
82080,-0.16
82093,-0.88
82106,2.00
82120,0.63
82133,-2.31
82146,0.03
82160,1.21
82173,-0.04
82186,-0.27
82199,-1.12
82213,0.07
82226,2.02
82240,0.05
82253,-1.26
82266,-0.17
82279,0.11
82293,-0.85
82306,0.67
82320,1.63
82333,-0.77
82346,-0.97
82360,-0.33
82373,0.82
82386,1.38
82400,-1.21
82413,-1.58
82426,0.92
82439,0.61
82453,0.28
82466,0.12
82479,-0.18
82493,-0.63
82506,0.24
82519,-0.65
82533,-0.15
82546,1.58
82559,0.15
82573,-1.38
82586,0.37
82599,0.54
82613,-0.75
82626,0.62
82639,-1.23
82653,-0.16
82666,2.25
82679,0.28
82693,-1.46
82706,-0.55
82719,0.18
82733,-1.20
82746,1.99
82759,1.09
82773,-1.47
82786,0.32
82799,-0.60
82813,-0.46
82826,-0.45
82840,2.20
82853,0.09
82866,-1.33
82879,-0.63
82893,0.40
82906,1.34
82920,-0.66
82933,-1.14
82946,1.56
82960,-0.65
82973,-0.82
82986,1.26
82999,0.12
83013,-0.76
83026,0.33
83039,-0.51
83053,-0.30
83066,1.25
83079,0.01
83093,-1.37
83106,1.44
83119,-0.36
83133,-1.69
83146,1.95
83159,0.81
83173,-2.45
83186,0.25
83199,0.92
83213,-0.08
83226,1.52
83239,-0.61
83253,-2.34
83266,0.39
83279,0.89
83293,0.53
83306,0.76
83319,-1.04
83333,-0.98
83346,1.03
83360,-0.09
83373,0.19
83386,-0.14
83399,-0.20
83413,-0.70
83426,1.01
83440,0.69
83453,-0.60
83466,-0.88
83480,0.10
83493,0.00
83506,1.32
83520,-0.22
83533,-0.80
83546,-0.44
83560,0.90
83573,-0.56
83586,0.32
83599,-0.16
83613,0.21
83626,0.55
83640,-0.73
83653,-0.06
83666,0.44
83680,-0.27
83693,-1.76
83706,1.39
83719,2.10
83733,-0.14
83746,-2.06
83760,-0.62
83773,-0.34
83786,1.56
83800,0.59
83813,-0.22
83826,0.21
83840,-0.46
83853,-1.64
83866,0.55
83879,1.58
83893,-0.96
83906,0.79
83919,0.43
83933,-1.56
83946,-1.04
83959,2.29
83973,-0.51
83986,0.32
84000,-0.48
84013,-0.99
84026,1.24
84040,0.51
84053,-1.13
84066,0.03
84079,1.13
84093,-1.62
84106,-0.18
84119,1.87
84133,-0.21
84146,-0.47
84160,-0.33
84173,-0.84
84186,1.04
84200,0.11
84213,0.31
84226,-0.48
84239,0.18
84253,-1.40
84266,0.85
84280,1.60
84293,-0.68
84306,-0.56
84320,-0.29
84333,-0.72
84346,0.45
84359,1.18
84373,0.28
84386,-0.21
84400,-0.93
84413,-1.39
84426,1.18
84440,1.65
84453,-0.70
84466,-0.40
84480,-0.26
84493,0.02
84506,-1.29
84519,1.91
84533,0.72
84546,-1.02
84560,-0.30
84573,-0.85
84586,0.83
84600,0.27
84613,-0.01
84626,0.77
84639,-0.70
84653,-1.64
84666,1.43
84680,1.11
84693,-1.34
84706,-0.90
84720,1.58
84733,0.19
84746,-0.31
84759,0.13
84773,-1.84
84786,0.65
84800,1.12
84813,0.48
84826,0.13
84846,-0.79
84853,-2.41
84866,1.57
84879,2.16
84893,-0.89
84906,-0.76
84919,-0.03
84933,-0.56
84946,0.80
84959,0.69
84973,-0.92
84986,-0.25
84999,0.11
85013,0.37
85026,1.41
85039,-1.58
85053,-1.16
85066,0.33
85079,1.36
85093,0.29
85106,-0.22
85120,0.36
85133,-1.46
85146,-0.48
85159,0.57
85173,0.06
85186,1.21
85199,0.65
85213,-1.51
85226,-0.42
85240,0.51
85253,-1.37
85266,2.01
85279,0.47
85293,-1.82
85306,0.12
85320,1.36
85333,-1.09
85346,0.81
85359,-0.09
85373,-1.39
85386,0.54
85399,0.93
85413,-0.05
85426,-0.60
85440,-0.18
85453,0.20
85466,0.80
85479,-0.15
85493,-1.55
85506,0.49
85519,1.23
85533,-0.71
85546,0.96
85559,-1.82
85573,0.16
85586,1.15
85599,0.93
85613,-1.76
85626,-0.64
85640,0.80
85653,0.31
85666,0.23
85679,0.89
85693,-1.23
85706,-0.67
85719,0.15
85733,-0.09
85746,0.56
85759,1.54
85773,-0.90
85786,-0.57
85799,-1.26
85813,-0.45
85826,3.34
85840,0.70
85853,-3.25
85866,-1.74
85880,2.71
85893,1.04
85906,0.30
85920,-0.87
85933,-1.47
85946,-0.03
85959,0.79
85973,-0.78
85986,2.00
85999,0.54
86013,-1.18
86026,-1.40
86039,0.49
86053,-0.15
86066,0.90
86079,0.03
86093,-0.15
86106,0.48
86119,0.46
86133,-2.23
86146,-0.39
86159,1.38
86173,1.36
86186,0.90
86199,-1.83
86213,-3.01
86226,0.98
86239,2.96
86253,0.64
86266,-1.15
86279,-0.29
86293,-2.00
86306,0.63
86319,1.92
86333,-1.31
86346,-0.06
86359,1.25
86373,-0.06
86386,-0.63
86399,-0.29
86413,-0.80
86426,0.55
86439,1.24
86453,-1.02
86466,-0.04
86480,0.21
86493,-0.24
86506,1.54
86519,-0.09
86533,-2.62
86546,-0.30
86559,1.87
86573,-0.07
86586,1.25
86599,0.13
86613,-2.30
86626,-0.53
86639,1.09
86653,0.37
86666,-0.01
86679,1.54
86693,-1.75
86706,-0.78
86720,0.17
86733,0.23
86746,1.96
86759,0.21
86773,-3.16
86786,-0.37
86799,2.65
86813,0.27
86826,-0.66
86839,-0.66
86853,-0.70
86866,0.31
86879,2.51
86893,-2.05
86906,-0.16
86919,-0.55
86932,1.06
86946,0.70
86959,-0.57
86973,-1.01
86986,0.44
86999,0.76
87013,-1.38
87026,1.21
87039,1.05
87053,-1.62
87066,-0.64
87079,0.59
87093,-0.06
87106,0.89
87119,0.46
87133,-1.35
87146,0.09
87159,-0.07
87172,0.20
87186,0.36
87199,0.06
87213,-0.45
87226,0.22
87239,0.17
87252,-1.59
87266,1.52
87279,1.60
87293,-2.18
87306,-0.03
87319,0.09
87333,0.14
87346,0.12
87359,0.88
87373,-0.71
87386,-0.78
87399,1.00
87413,-0.25
87426,0.22
87439,-0.63
87453,-0.10
87466,0.58
87479,0.36
87493,-0.30
87506,-0.49
87519,-0.10
87533,0.32
87546,0.17
87559,0.67
87573,-0.88
87586,-0.58
87599,0.67
87613,-0.12
87626,1.25
87639,-0.87
87653,-1.26
87666,0.03
87679,1.82
87693,-0.05
87706,-0.84
87719,-0.11
87733,-0.37
87746,0.65
87759,0.85
87773,-1.51
87786,-0.33
87799,1.11
87813,-0.56
87826,1.49
87839,-0.24
87853,-1.53
87866,-0.22
87879,0.49
87893,-0.14
87906,0.41
87919,1.54
87933,-0.84
87946,-0.75
87959,-1.03
87973,0.11
87986,1.65
87999,0.60
88013,-1.49
88026,-0.59
88039,0.89
88053,0.75
88066,-0.69
88079,0.30
88093,-0.95
88106,-1.11
88119,1.95
88133,1.17
88146,-0.59
88159,-0.56
88173,-1.60
88186,0.40
88199,0.72
88212,0.16
88226,1.21
88239,0.09
88253,-1.57
88266,-0.70
88279,0.27
88292,0.16
88306,0.95
88319,0.91
88333,-0.47
88346,-0.77
88359,-0.75
88372,-1.42
88386,1.65
88399,2.99
88413,-1.53
88426,-1.76
88439,0.38
88453,-0.32
88466,0.54
88479,0.82
88493,-1.25
88506,1.14
88519,0.76
88533,-1.67
88546,-1.20
