Time (ms),EMG Value
2004,-4.51
2017,2.60
2030,2.41
2044,-5.78
2057,1.08
2070,4.09
2084,-2.93
2097,1.38
2110,1.66
2124,-5.19
2137,1.47
2150,3.48
2164,-3.65
2177,1.57
2191,2.55
2204,-4.56
2217,1.30
2230,2.82
2244,-4.16
2257,1.54
2271,2.85
2284,-4.09
2297,0.79
2311,3.76
2324,-5.18
2337,2.23
2351,2.97
2364,-5.19
2377,0.91
2391,3.47
2404,-3.25
2417,1.48
2431,2.59
2444,-5.03
2457,0.11
2471,3.89
2484,-2.66
2497,0.82
2511,2.68
2524,-4.95
2537,1.14
2551,3.90
2564,-4.58
2577,0.95
2591,3.07
2604,-3.72
2617,1.47
2631,2.50
2644,-5.08
2657,1.58
2671,4.18
2684,-4.08
2697,-0.40
2711,2.89
2724,-3.02
2737,1.20
2751,3.02
2764,-4.20
2777,0.24
2791,3.14
2804,-3.42
2817,0.81
2831,3.11
2844,-3.79
2857,0.35
2870,3.69
2884,-4.36
2897,0.09
2911,4.32
2924,-3.77
2937,-0.10
2950,3.66
2964,-4.10
2977,0.14
2991,4.11
3004,-3.90
3017,-0.00
3030,3.86
3044,-4.03
3057,0.04
3071,4.12
3084,-4.44
3097,0.24
3110,4.35
3124,-3.34
3137,-1.22
3150,3.00
3164,-2.72
3177,0.98
3191,3.48
3204,-4.79
3217,-0.06
3231,4.39
3244,-3.71
3257,-0.13
3270,3.66
3284,-4.03
3297,0.22
3311,4.12
3324,-3.96
3337,-0.07
3351,3.83
3364,-4.02
3377,0.07
3390,3.99
3404,-3.94
3417,0.05
3431,3.78
3444,-3.20
3457,-1.29
3471,4.23
3484,-2.89
3497,-0.57
3511,3.86
3524,-3.90
3537,-0.84
3551,4.45
3564,-2.59
3577,-0.98
3590,3.13
3604,-2.51
3617,-1.14
3631,3.16
3644,-0.71
3657,-1.69
3671,1.65
3684,-2.05
3697,0.40
3711,4.53
3724,-3.20
3737,-3.10
3751,3.24
3764,-1.24
3777,0.13
3791,3.65
3804,-3.37
3817,-1.67
3831,3.70
3844,-2.11
3857,-1.57
3871,4.32
3884,-2.11
3897,-2.31
3911,3.81
3924,-1.99
3937,-1.05
3951,3.35
3964,-2.53
3977,-1.58
3991,4.48
4004,-2.12
4017,-2.47
4031,3.87
4044,-2.39
4057,-0.71
4071,4.00
4084,-2.71
4097,-1.59
4111,3.34
4124,-2.30
4137,-1.37
4151,4.60
4164,-2.23
4177,-1.87
4190,2.92
4204,-2.26
4217,-1.04
4231,4.75
4244,-2.26
4257,-2.76
4271,3.54
4284,-1.74
4297,-1.43
4311,4.21
4324,-2.15
4337,-2.23
4351,3.80
4364,-1.99
4377,-1.85
4390,4.05
4404,-1.98
4417,-1.97
4431,3.93
4444,-2.03
4457,-1.96
4471,3.81
4484,-1.36
4497,-2.62
4511,3.43
4524,-0.81
4537,-2.04
4551,3.25
4564,-1.44
4577,-2.35
4590,3.51
4604,-0.99
4617,-2.16
4631,3.36
4644,-1.24
4657,-2.29
4671,3.40
4684,-1.14
4697,-2.22
4710,3.41
4724,-1.16
4737,-2.25
4751,3.40
4764,-1.16
4777,-2.24
4790,3.40
4804,-1.16
4817,-2.24
4831,3.40
4844,-1.16
4857,-2.24
4871,3.40
4884,-1.16
4897,-2.24
4910,3.40
4924,-1.16
4937,-2.24
4951,3.40
4964,-1.16
4977,-2.24
4991,3.40
5003,-1.01
5017,-2.89
5031,4.08
5044,-0.63
5057,-3.44
5070,3.49
5084,-0.61
5097,-2.33
5110,3.62
5124,-1.27
5137,-3.12
5151,3.70
5164,-0.12
5177,-2.02
5191,2.55
5204,-1.83
5217,-2.79
5230,4.83
5244,-0.04
5257,-3.49
5271,3.03
5284,-0.84
5297,-2.89
5310,3.97
5324,-0.51
5337,-3.16
5351,3.60
5364,-0.62
5377,-3.07
5390,3.71
5404,-0.45
5417,-3.60
5430,3.71
5444,0.61
5457,-3.91
5471,3.23
5484,-0.47
5497,-3.49
5510,4.72
5524,0.00
5537,-3.73
5551,2.78
5564,-0.57
5577,-3.15
5590,4.73
5604,0.57
5617,-5.30
5630,3.00
5644,1.32
5657,-3.60
5671,3.64
5684,-0.22
5697,-3.90
5710,3.79
5724,0.46
5737,-4.64
5750,3.63
5764,1.37
5777,-4.00
5791,3.13
5804,0.37
5817,-4.40
5830,3.59
5844,1.08
5857,-4.09
5871,3.39
5884,0.70
5897,-4.32
5910,3.40
5924,0.83
5937,-4.05
5950,2.80
5964,1.49
5977,-3.70
5991,2.22
6004,0.89
6017,-3.53
6030,2.84
6044,1.21
6057,-3.78
6071,2.40
6084,1.02
6097,-3.78
6110,3.30
6124,0.48
6137,-4.36
6150,4.08
6164,1.29
6177,-4.84
6191,1.44
6204,2.14
6217,-2.03
6230,2.59
6244,-0.20
6257,-5.43
6271,3.55
6284,2.76
6297,-4.14
6310,2.66
6324,0.68
6337,-4.54
6350,3.49
6364,1.80
6377,-5.02
6391,2.49
6404,1.90
6417,-3.98
6430,3.12
6444,1.46
6457,-4.91
6470,2.63
6484,1.71
6497,-4.33
6510,3.02
6524,1.71
6537,-4.56
6550,2.64
6564,2.26
6577,-5.22
6591,2.33
6604,2.88
6617,-4.59
6630,2.17
6644,2.24
6657,-4.92
6670,2.41
6684,2.68
6697,-4.74
6711,2.26
6724,2.43
6737,-4.87
6750,2.30
6764,2.54
6777,-4.78
6791,2.32
6804,2.51
6817,-4.82
6830,2.29
6844,2.51
6857,-4.82
6870,2.30
6884,2.67
6897,-5.45
6911,2.98
6924,3.05
6937,-6.01
6951,2.54
6964,2.57
6977,-4.71
6990,3.08
7004,2.41
7017,-6.42
7030,2.69
7044,3.58
7057,-4.78
7070,2.20
7084,2.06
7097,-5.73
7110,2.80
7124,3.75
7137,-4.54
7150,1.36
7164,1.58
7177,-4.77
7190,3.07
7203,3.29
7217,-5.47
7230,2.53
7244,2.66
7257,-6.09
7270,2.55
7284,3.42
7297,-5.29
7310,2.69
7324,2.91
7337,-5.89
7350,2.48
7364,3.11
7377,-5.57
7390,2.66
7404,3.09
7417,-5.68
7430,2.57
7444,3.06
7457,-5.67
7470,2.59
7484,3.07
7497,-5.66
7510,2.59
7524,3.07
7537,-5.66
7551,2.59
7564,3.07
7577,-5.66
7590,2.59
7604,3.07
7617,-5.66
7631,2.59
7644,3.07
7657,-5.66
7671,2.59
7684,3.23
7697,-6.15
7710,2.62
7724,4.13
7737,-5.69
7750,0.80
7764,3.33
7777,-4.33
7790,2.33
7804,3.22
7817,-5.66
7830,1.22
7844,4.08
7857,-5.48
7871,1.42
7884,4.58
7897,-5.29
7910,0.93
7924,3.74
7937,-4.85
7950,0.64
7964,4.03
7977,-4.74
7990,1.73
8004,3.95
8017,-6.08
8030,0.86
8044,4.49
8057,-4.92
8070,1.38
8084,4.07
8097,-5.65
8110,1.04
8123,4.09
8137,-4.64
8150,0.58
8164,3.85
8177,-4.86
8190,1.74
8203,4.02
8217,-6.02
8230,0.87
8244,4.48
8257,-4.94
8270,1.37
8284,4.07
8297,-5.65
8310,1.05
8324,4.09
8337,-4.64
8350,0.58
8364,3.85
8377,-4.86
8390,1.58
8404,4.20
8417,-4.92
8430,-1.05
8444,3.71
8457,-3.09
8471,2.46
8484,3.53
8497,-6.23
8510,-0.53
8524,3.82
8537,-3.23
8550,1.99
8564,3.87
8577,-5.90
8590,0.84
8604,3.95
8617,-5.53
8630,1.33
8644,4.43
8657,-4.44
8671,0.53
8684,3.46
8697,-4.43
8710,0.99
8724,3.55
8737,-4.71
8750,0.85
8764,3.78
8777,-4.23
8790,0.30
8804,4.27
8817,-4.10
8830,-0.37
8844,3.73
8857,-3.81
8870,0.35
8884,4.07
8897,-4.08
8910,-0.13
8924,3.86
8937,-3.95
8950,0.11
8964,3.99
8977,-3.98
8990,0.02
9004,3.92
9017,-3.99
9030,0.04
9044,3.95
9057,-3.98
9070,0.04
9084,3.94
9097,-3.98
9110,-0.12
9124,4.43
9137,-4.01
9150,-1.17
9164,4.92
9177,-4.00
9190,0.10
9204,4.60
9217,-3.87
9230,-2.16
9244,3.72
9257,-2.33
9270,0.66
9284,4.54
9297,-4.25
9310,-2.60
9324,4.74
9337,-3.01
9350,-0.62
9364,5.19
9377,-4.03
9390,-1.61
9404,5.10
9417,-3.61
9430,-1.37
9444,4.99
9457,-3.78
9470,-1.34
9484,5.17
9497,-3.64
9510,-1.36
9524,5.05
9537,-3.76
9550,-1.41
9564,4.92
9577,-3.06
9590,-2.03
9604,4.57
9617,-2.50
9630,-1.46
9643,4.37
9657,-3.15
9670,-1.78
9684,4.63
9697,-2.69
9710,-1.43
9724,3.84
9737,-2.11
9750,-1.98
9764,4.64
9777,-2.89
9790,-2.51
9804,4.60
9817,-1.16
9830,-1.96
9844,3.27
9857,-2.52
9870,-1.83
9884,4.41
9897,-1.73
9910,-2.01
9924,3.74
9937,-2.16
9950,-1.95
9964,4.04
9977,-1.94
9990,-1.93
10004,3.79
10017,-1.39
10030,-2.64
10044,3.42
10057,-0.81
10070,-2.03
10084,3.26
10097,-1.43
10110,-2.35
10124,3.51
10137,-0.99
10150,-2.16
10164,3.36
10177,-1.24
10190,-2.30
10204,3.40
10217,-1.14
10230,-2.21
10244,3.42
10257,-1.16
10270,-2.25
10284,3.39
10297,-1.17
10310,-2.24
10324,3.40
10337,-1.16
10350,-2.24
10364,3.40
10377,-1.00
10390,-2.88
10404,4.08
10417,-0.63
10430,-3.44
10444,3.49
10457,-0.45
10470,-2.82
10484,3.80
10497,-0.71
10510,-3.26
10524,3.61
10537,-0.56
10550,-3.01
10564,3.75
10577,-0.60
10590,-3.12
10604,3.67
10617,-0.61
10630,-3.09
10644,3.70
10657,-0.59
10670,-3.09
10684,3.69
10697,-0.44
10710,-3.74
10724,4.36
10737,-0.22
10750,-3.65
10764,2.79
10777,0.55
10790,-2.68
10804,2.23
10817,-0.04
10830,-2.49
10843,3.94
10857,-0.76
10870,-4.37
10884,3.99
10897,0.15
10910,-3.71
10924,4.21
10937,0.09
10950,-4.02
10964,3.73
10977,-0.28
10990,-4.01
11004,4.10
11017,0.14
11030,-3.82
11044,3.84
11057,0.70
11070,-5.34
11084,4.23
11097,1.04
11110,-4.54
11124,3.92
11137,0.06
11150,-4.66
11164,4.00
11177,1.53
11190,-4.25
11204,2.83
11217,0.54
11230,-4.78
11244,4.46
11257,1.57
11270,-5.48
11284,3.33
11297,1.41
11310,-4.80
11324,3.89
11337,1.31
11350,-5.25
11364,3.62
11377,1.39
11390,-5.01
11404,3.77
11417,1.54
11430,-5.59
11444,3.87
11457,2.08
11471,-5.72
11484,3.50
11497,2.33
11510,-5.63
11524,1.73
11537,3.13
11550,-3.76
11564,3.54
11577,0.58
11590,-6.29
11604,3.63
11617,2.90
11630,-5.30
11644,2.92
11657,2.40
11670,-5.76
11684,3.94
11697,2.55
11710,-6.90
11724,3.08
11737,3.03
11750,-5.73
11764,3.71
11777,2.86
11790,-7.11
11804,3.95
11817,3.30
11830,-7.36
11844,3.59
11857,3.52
11870,-6.79
11883,3.84
11897,3.23
11910,-7.25
11924,3.65
11937,3.38
11950,-6.84
11963,3.14
11977,4.02
11990,-6.56
12004,2.51
12017,3.42
12030,-6.37
12044,3.31
12057,3.41
12070,-7.23
12084,4.44
12097,3.76
12110,-8.17
12124,1.81
12137,4.69
12150,-3.19
12164,0.48
12177,1.83
12190,-4.60
12204,2.59
12217,3.59
12230,-6.81
12244,4.07
12257,3.04
12270,-8.04
12284,2.10
12297,6.05
12310,-4.46
12324,1.37
12337,2.28
12350,-7.66
12364,3.07
12377,5.51
12390,-6.42
12404,2.14
12417,4.23
12430,-6.92
12444,2.27
12457,4.41
12470,-6.87
12484,2.34
12497,4.58
12510,-6.55
12524,1.88
12537,5.12
12550,-8.37
12563,4.80
12577,4.83
12590,-9.45
12603,0.78
12617,6.13
12630,-4.22
12644,2.88
12657,2.82
12670,-8.64
12683,1.95
12697,5.46
12710,-5.68
12724,2.71
12737,4.32
12750,-7.97
12764,2.68
12777,5.00
12790,-7.87
12804,2.55
12817,5.89
12830,-9.63
12844,4.27
12857,6.97
12870,-7.85
12884,-2.04
12897,4.82
12910,-4.24
12923,3.52
12937,6.02
12950,-9.11
12964,-0.33
12977,5.70
12990,-6.01
13004,1.53
13017,6.24
13030,-6.24
13044,0.64
13057,4.99
13070,-7.04
13084,0.86
13097,5.95
13110,-6.16
13123,1.08
13136,6.34
13150,-9.75
13164,3.67
13177,7.51
13190,-8.25
13203,-2.17
13217,5.37
13230,-3.79
13244,3.29
13257,5.29
13270,-8.72
13284,-0.75
13297,5.71
13310,-5.30
13324,1.98
13337,5.84
13351,-6.81
13364,-0.27
13377,6.18
13390,-6.63
13404,0.54
13417,6.09
13430,-5.81
13444,-0.27
13457,4.66
13470,-3.53
13484,-0.06
13497,3.85
13510,-4.77
13523,0.62
13537,4.39
13550,-5.18
13564,0.28
13577,4.86
13590,-4.29
13604,-0.27
13617,4.91
13630,-4.60
13643,-0.98
13657,4.84
13670,-4.61
13683,0.54
13697,5.46
13710,-5.62
13723,-0.65
13737,5.38
13750,-4.82
13764,-0.04
13777,5.31
13790,-5.28
13803,-0.32
13817,5.37
13830,-4.89
13843,-0.82
13857,6.03
13870,-4.61
13883,-1.30
13897,4.63
13910,-3.56
13923,0.38
13937,4.12
13950,-5.13
13964,-3.15
13977,7.96
13990,-0.32
14003,-1.80
14017,0.69
14030,-6.75
14043,0.22
14057,9.08
14070,-1.52
14083,-2.50
14097,2.46
14110,-5.32
14124,-1.12
14137,6.33
14150,-2.70
14163,-1.13
14177,4.76
14190,-4.14
14203,-1.63
14217,5.03
14230,-3.49
14243,-1.92
14257,5.83
14270,-3.14
14283,-2.56
14297,5.17
14310,-3.01
14324,-1.96
14337,5.46
14350,-3.28
14364,-2.41
14377,5.30
14390,-3.10
14404,-2.12
14417,5.29
14430,-2.50
14444,-2.93
14457,4.80
14470,-1.97
14484,-2.32
14497,4.67
14510,-2.57
14524,-2.61
14537,5.08
14550,-2.61
14564,-2.40
14577,5.98
14590,-3.06
14603,-3.53
14617,4.80
14630,-0.98
14643,-2.31
14657,3.61
14670,-1.65
14683,-2.90
14697,4.50
14710,-1.59
14723,-2.35
14737,4.68
14750,-1.87
14763,-3.67
14777,4.09
14790,-1.38
14804,-1.96
14817,5.76
14830,-2.47
14844,-4.47
14857,4.75
14870,-1.24
14884,-2.71
14897,5.32
14910,-1.96
14924,-3.67
14937,4.82
14950,-1.04
14964,-3.93
14977,4.63
14990,-0.54
15004,-3.48
15017,4.37
15030,-1.02
15043,-4.40
15057,5.33
15070,-0.18
15083,-4.78
15097,4.74
15110,-0.91
15124,-3.61
15137,5.32
15150,-0.97
15164,-5.23
15177,4.94
15190,0.34
15203,-4.11
15217,4.47
15230,-0.13
15244,-5.39
15257,4.57
15270,0.47
15283,-3.78
15297,4.63
15310,-1.06
15324,-4.89
15337,5.07
15350,0.14
15364,-4.28
15377,4.70
15390,-0.43
15403,-5.28
15417,5.53
15430,0.31
15443,-5.63
15457,4.94
15470,0.36
15483,-5.11
15497,5.06
15510,0.76
15523,-6.20
15537,4.51
15550,1.48
15563,-5.35
15577,4.47
15590,0.96
15603,-6.42
15617,5.32
15630,1.77
15644,-6.77
15657,4.77
15670,1.38
15683,-6.73
15697,6.20
15710,1.79
15724,-7.29
15737,3.45
15750,1.85
15764,-4.65
15777,4.18
15790,1.91
15803,-5.88
15817,3.68
15830,1.39
15844,-6.99
15857,5.01
15870,3.23
15883,-6.62
15897,4.00
15910,2.32
15924,-7.57
15937,4.96
15950,3.07
15964,-7.94
15977,4.44
15990,3.26
16003,-7.32
16017,4.69
16030,2.90
16043,-7.85
16057,4.63
16070,3.21
16083,-9.78
16097,7.12
16110,5.77
16124,-10.10
16137,0.04
16150,4.03
16164,-3.32
16177,5.94
16190,2.04
16204,-9.87
16217,2.31
16230,4.23
16243,-6.11
16257,5.38
16270,3.79
16284,-8.93
16297,3.26
16310,3.87
16323,-7.54
16337,4.32
16350,3.94
16364,-8.03
16377,3.94
16390,3.91
16404,-7.88
16417,3.89
16430,4.69
16443,-9.28
16457,4.29
16470,4.99
16484,-8.53
16497,3.80
16510,4.65
16523,-9.48
16537,4.14
16550,5.99
16564,-8.86
16577,3.37
16590,4.82
16604,-9.22
16617,3.95
16630,5.76
16643,-9.57
16657,4.38
16670,5.57
16684,-9.71
16697,3.14
16710,5.66
16724,-8.89
16737,4.12
16750,5.97
16763,-8.89
16777,1.25
16790,5.16
16804,-8.18
16817,6.61
16830,5.99
16844,-12.85
16857,1.88
16870,6.76
16884,-6.63
16897,4.64
16910,4.36
16924,-10.32
16937,2.48
16950,6.15
16963,-7.21
16977,2.33
16990,4.93
17004,-7.35
17017,2.85
17030,5.32
17044,-10.00
17057,4.40
17070,6.45
17083,-9.70
17097,1.71
17110,6.11
17123,-7.07
17137,3.39
17150,5.58
17164,-10.25
17177,1.92
17190,7.16
17204,-7.98
17217,2.53
17230,6.27
17243,-9.79
17257,2.93
17270,6.95
17283,-9.24
17297,1.77
17310,6.59
17324,-8.20
17337,2.65
17350,6.37
17364,-9.87
17377,2.83
17390,6.98
17403,-9.11
17417,1.88
17430,6.59
17443,-8.27
17457,2.58
17470,6.34
17483,-9.86
17497,2.85
17510,7.15
17523,-9.58
17537,1.91
17550,7.64
17564,-8.46
17577,1.43
17590,6.07
17603,-9.25
17617,2.85
17630,12.97
17644,-27.52
17657,19.37
17670,17.59
17683,-26.83
17697,-11.75
17710,14.76
17723,7.48
17737,8.04
17750,-1.27
17764,-18.83
17777,-3.69
17790,9.52
17803,0.09
17817,6.04
17830,5.57
17844,-12.08
17857,-1.38
17870,6.25
17883,-7.11
17897,2.84
17910,7.46
17924,-8.24
17937,1.12
17950,6.24
17963,-7.74
17977,0.68
17990,6.93
18003,-7.67
18017,0.85
18030,7.22
18044,-7.74
18057,0.42
18070,6.91
18083,-7.44
18097,0.16
18110,7.80
18123,-7.18
18137,-0.67
18150,7.04
18163,-6.97
18177,0.11
18190,7.33
18203,-6.55
18217,-0.90
18230,6.05
18243,-5.22
18257,0.15
18270,5.80
18283,-5.98
18297,-1.16
18310,5.74
18323,-3.76
18337,-0.14
18350,5.27
18363,-6.66
18377,0.08
18390,6.72
18403,-6.14
18417,-1.39
18430,6.76
18444,-4.52
18457,0.01
18470,5.35
18483,-6.70
18497,-1.75
18510,7.80
18523,-3.93
18537,-1.92
18550,5.72
18564,-5.19
18577,-1.38
18590,6.89
18603,-4.73
18617,-1.81
18630,6.29
18644,-4.92
18657,-1.58
18670,6.59
18683,-4.79
18697,-1.64
18710,6.47
18723,-4.73
18737,-2.31
18750,7.16
18763,-4.31
18777,-2.83
18790,6.59
18803,-4.14
18817,-2.22
18830,6.74
18843,-3.76
18857,-3.34
18870,6.17
18883,-3.05
18897,-2.50
18910,6.13
18923,-3.71
18937,-2.92
18950,6.15
18963,-2.64
18977,-3.38
18990,5.65
19003,-2.32
19017,-2.92
19030,5.67
19043,-3.33
19057,-2.97
19070,7.43
19083,-6.15
19097,-1.77
19110,21.70
19123,-51.60
19137,40.60
19150,34.14
19163,-40.34
19177,-43.97
19190,18.95
19204,41.79
19217,16.77
19230,-12.67
19244,-34.92
19257,-15.93
19270,17.08
19283,16.29
19297,5.87
19310,3.79
19323,-10.52
19337,-10.89
19350,5.46
19363,0.38
19377,-2.90
19390,7.50
19403,-0.61
19417,-4.38
19430,5.81
19443,-1.60
19457,-6.21
19470,5.35
19483,-0.19
19497,-4.58
19510,5.81
19523,-0.71
19537,-5.23
19550,6.46
19563,-1.17
19576,-5.48
19590,6.07
19603,0.10
19617,-6.60
19630,6.45
19643,-0.07
19657,-5.98
19670,5.35
19683,0.22
19697,-4.59
19710,4.63
19723,0.58
19737,-5.10
19750,4.02
19763,-0.18
19776,-4.67
19790,5.77
19803,0.44
19817,-7.08
19830,6.50
19843,0.90
19856,-6.70
19870,5.12
19883,1.02
19897,-6.69
19910,6.15
19923,1.35
19937,-7.35
19950,5.54
19963,1.46
19977,-6.88
19990,5.73
20003,1.55
20017,-8.46
20030,6.88
20043,2.51
20057,-7.48
20070,2.67
20083,2.28
20097,-5.45
20110,7.44
20123,1.90
20137,-12.09
20150,5.69
20163,4.82
20176,-8.18
20190,5.66
20203,3.08
20217,-9.10
20230,5.63
20243,3.20
20257,-9.94
20270,6.42
20283,4.13
20297,-9.96
20310,5.75
20323,3.96
20337,-7.88
20350,2.78
20363,3.13
20377,-6.60
20390,6.27
20403,2.93
20417,-10.94
20430,4.87
20443,5.21
20457,-9.04
20470,6.09
20483,4.37
20497,-11.00
20510,4.98
20523,5.02
20537,-10.42
20550,6.39
20563,5.27
20577,-11.37
20590,4.79
20603,6.09
20617,-10.20
20630,4.52
20643,5.61
20657,-10.05
20670,3.84
20683,5.20
20697,-8.56
20710,4.61
20723,6.78
20737,-18.08
20750,12.39
20764,11.61
20777,-21.51
20790,2.15
20804,11.43
20817,-9.00
20830,6.40
20844,6.17
20857,-15.09
20870,3.29
20883,7.66
20897,-10.43
20910,5.49
20923,7.57
20937,-12.26
20950,4.90
20963,6.95
20977,-13.23
20990,4.68
21003,7.83
21017,-11.22
21030,4.52
21043,7.06
21057,-12.18
21070,5.32
21083,7.36
21097,-13.03
21110,4.65
21123,7.83
21137,-11.86
21150,4.46
21163,8.40
21177,-13.47
21190,4.92
21203,8.27
21217,-12.29
21230,3.05
21243,7.60
21257,-10.14
21270,4.40
21283,7.27
21297,-12.43
21310,3.82
21323,7.90
21337,-12.33
21350,4.38
21363,9.43
21377,-12.39
21390,2.80
21403,8.47
21417,-12.66
21430,4.54
21443,9.22
21457,-12.87
21470,2.75
21483,8.83
21497,-11.50
21510,3.90
21523,8.46
21537,-12.68
21550,3.26
21563,8.66
21577,-11.30
21590,2.98
21603,8.30
21617,-11.73
21630,3.86
21643,9.14
21657,-13.48
21670,2.67
21683,10.17
21697,-11.83
21710,2.98
21723,9.12
21737,-12.86
21750,2.91
21763,9.75
21777,-12.30
21790,2.98
21803,9.48
21817,-12.41
21830,2.26
21844,10.23
21857,-11.93
21870,1.75
21883,9.64
21897,-11.78
21910,2.36
21923,10.10
21937,-12.68
21950,2.75
21963,10.57
21977,-16.12
21990,6.20
22003,17.45
22017,-36.32
22030,20.07
22044,27.58
22057,-40.91
22070,-0.51
22083,22.02
22097,-4.28
22110,-4.92
22123,4.42
22137,-5.42
22150,2.84
22163,6.23
22177,-12.65
22190,-0.54
22203,11.11
22217,-5.53
22230,1.48
22243,6.99
22257,-10.24
22270,-1.56
22283,8.06
22296,-7.52
22310,1.75
22323,8.58
22337,-8.56
22350,-1.44
22363,8.58
22377,-6.85
22390,-0.86
22403,7.50
22417,-7.09
22430,-1.32
22443,7.98
22456,-5.97
22470,-0.85
22483,7.35
22497,-6.94
22510,-1.07
22523,11.86
22537,-25.51
22550,19.68
22563,19.34
22577,-23.75
22590,-19.22
22603,11.32
22617,14.92
22630,8.15
22643,-0.93
22657,-18.19
22670,-8.51
22683,10.28
22696,3.35
22710,2.38
22723,6.44
22737,-7.57
22750,-5.33
22763,5.95
22776,-3.61
22790,-1.50
22803,7.38
22817,-4.14
22830,-2.55
22843,6.71
22856,-4.20
22870,-3.21
22883,7.36
22896,-3.86
22910,-3.76
22923,6.88
22936,-3.51
22950,-2.96
22963,7.27
22976,-3.81
22990,-3.55
23003,6.93
23017,-3.75
23030,-3.29
23043,7.13
23057,-3.70
23070,-3.33
23083,6.92
23096,-2.93
23110,-4.67
23123,7.20
23136,-2.01
23150,-4.64
23163,6.45
23176,-2.44
23190,-4.31
23203,7.03
23217,-2.25
23230,-4.58
23243,6.68
23256,-2.22
23270,-5.10
23283,7.53
23296,-1.76
23310,-5.68
23323,6.88
23337,-1.62
23350,-5.06
23363,13.38
23377,-26.86
23390,18.41
23403,24.78
23417,-20.63
23430,-32.45
23443,10.73
23457,25.33
23470,9.20
23483,-1.62
23497,-19.41
23510,-16.43
23523,11.58
23537,10.68
23550,-0.41
23563,6.95
23577,-4.20
23590,-11.44
23603,5.53
23617,1.72
23630,-6.42
23643,7.83
23657,1.23
23670,-7.57
23683,20.13
23697,-53.26
23710,45.59
23723,40.30
23737,-43.49
23750,-55.64
23763,14.56
23777,53.23
23790,23.95
23803,6.15
23817,-105.91
23830,32.20
23843,84.37
23856,-86.57
23870,-13.13
23883,60.91
23897,15.12
23910,-38.38
23923,-6.96
23937,14.50
23950,-1.73
23963,2.47
23977,-8.33
23990,-16.24
24003,16.77
24017,17.02
24030,-7.14
24043,1.50
24056,-4.24
24070,-15.92
24083,7.46
24097,8.03
24110,-9.69
24123,8.85
24137,6.13
24150,-13.02
24163,4.97
24177,5.39
24190,-12.95
24203,6.44
24217,6.46
24230,-12.65
24243,6.67
24256,7.06
24270,-13.09
24283,6.90
24297,6.59
24310,-14.30
24323,6.24
24337,7.31
24350,-13.80
24363,7.40
24377,8.31
24390,-16.24
24403,6.74
24416,9.55
24430,-16.08
24443,7.07
24456,9.38
24470,-17.44
24483,7.54
24497,10.31
24510,-17.34
24523,7.07
24537,10.22
24550,-17.83
24563,7.92
24576,10.69
24590,-19.22
24603,7.95
24617,11.36
24630,-18.99
24643,7.73
24657,11.37
24670,-19.55
24683,8.32
24697,12.44
24710,-21.59
24723,8.00
24737,13.68
24750,-20.77
24763,7.60
24777,13.07
24790,-21.65
24803,8.60
24817,13.94
24830,-22.82
24843,8.52
24857,14.52
24870,-23.38
24883,9.00
24897,14.87
24910,-23.77
24923,8.50
24937,15.22
24950,-24.47
24963,9.47
24977,16.52
24990,-25.65
25003,8.25
25017,15.85
25030,-24.93
25043,10.17
25057,17.26
25070,-26.51
25083,7.52
25097,16.48
25110,-24.13
25123,8.78
25137,16.43
25150,-24.67
25163,8.20
25177,15.95
25190,-24.84
25203,8.47
25217,16.46
25230,-24.48
25243,8.30
25257,16.82
25270,-25.44
25283,7.82
25297,17.45
25310,-24.72
25323,7.73
25337,16.84
25350,-25.06
25363,7.96
25376,17.27
25390,-24.88
25403,7.81
25416,17.17
25430,-25.50
25443,7.87
25457,18.49
25470,-26.23
25483,7.43
25497,18.28
25510,-25.38
25523,7.08
25537,18.27
25550,-25.54
25563,8.02
25577,18.50
25590,-28.05
25603,8.68
25617,19.78
25630,-27.33
25643,7.28
25657,19.36
25670,-26.98
25683,8.81
25697,19.27
25710,-28.65
25723,7.78
25736,20.15
25750,-27.84
25763,9.10
25777,20.01
25790,-29.31
25803,8.06
25816,20.66
25830,-29.39
25843,9.20
25856,22.35
25870,-30.72
25883,6.27
25897,21.58
25910,-26.58
25923,7.79
25936,19.79
25950,-29.44
25963,8.11
25977,22.37
25990,-30.95
26003,8.52
26017,23.04
26030,-29.94
26043,6.10
26056,22.02
26070,-28.90
26083,8.66
26097,22.13
26110,-30.99
26123,6.42
26136,23.50
26150,-28.83
26163,6.76
26177,21.91
26190,-27.80
26203,4.80
26217,21.11
26230,-25.24
26243,5.77
26256,20.36
26270,-27.85
26283,6.88
26297,21.93
26310,-28.93
26323,6.56
26337,22.11
26350,-27.11
26363,4.42
26377,21.67
26390,-25.80
26403,5.08
26417,20.87
26430,-26.78
26443,5.14
26456,21.41
26470,-24.86
26483,3.67
26497,20.41
26510,-25.29
26523,5.54
26536,21.27
26550,-25.12
26563,1.24
26577,20.52
26590,-21.84
26603,5.25
26617,19.85
26630,-25.95
26643,2.64
26657,20.52
26670,-21.16
26683,2.35
26697,34.07
26710,-86.05
26723,70.30
26736,59.30
26750,-77.29
26763,-61.95
26776,34.50
26790,49.36
26803,34.09
26816,-9.85
26830,-63.82
26843,-20.32
26856,30.66
26870,11.13
26883,13.62
26897,12.40
26910,-25.13
26923,-8.90
26937,12.61
26950,-10.55
26963,-1.17
26977,15.61
26990,-8.30
27003,-0.99
27017,11.98
27030,-12.46
27043,-3.98
27056,12.36
27070,-7.17
27083,-4.47
27097,11.80
27110,-7.15
27123,-3.32
27137,11.14
27150,-7.46
27163,-5.42
27177,11.21
27190,-5.00
27203,-4.65
27217,10.67
27230,-5.96
27243,-6.58
27257,10.53
27270,-3.22
27283,-5.54
27297,9.79
27310,-4.17
27323,-6.78
27337,10.28
27350,-2.87
27363,-7.62
27376,9.50
27390,-1.37
27403,-7.21
27417,8.99
27430,-1.75
27443,-8.08
27456,9.65
27470,-1.28
27483,-8.42
27497,9.16
27510,-0.33
27523,-8.55
27536,8.88
27550,-0.05
27563,-9.10
27576,9.11
27590,0.76
27603,-10.96
27616,9.22
27630,2.26
27643,-10.26
27656,8.37
27670,1.90
27683,-11.18
27696,8.44
27710,2.94
27723,-10.50
27736,8.08
27750,2.30
27763,-11.32
27776,8.27
27790,4.48
27803,-12.00
27816,6.57
27830,4.36
27843,-10.73
27856,7.39
27870,4.06
27883,-12.31
27896,7.70
27910,4.82
27923,-12.31
27936,7.33
27950,4.98
27963,-12.60
27977,8.17
27990,5.13
28003,-13.52
28016,7.47
28030,5.63
28043,-13.28
28056,8.57
28070,5.86
28083,-15.05
28096,8.23
28109,7.18
28123,-15.38
28136,7.74
28150,7.80
28163,-15.35
28176,8.29
28190,7.27
28203,-15.76
28216,7.25
28230,7.48
28243,-13.58
28256,7.38
28269,6.52
28283,-14.97
28296,7.97
28310,8.04
28323,-16.50
28336,7.09
28350,10.04
28363,-16.06
28376,6.71
28390,8.67
28403,-15.42
28416,5.76
28430,8.81
28443,-13.84
28456,6.65
28470,8.34
28483,-17.34
28496,8.16
28510,10.46
28523,-18.55
28537,7.46
28550,10.78
28563,-17.21
28576,6.82
28590,9.43
28603,-15.33
28616,5.51
28630,8.07
28643,-9.98
28656,-0.08
28670,6.24
28683,-6.24
28696,6.86
28710,4.13
28723,-16.24
28737,4.58
28750,10.25
28763,-11.52
28777,6.66
28790,7.62
28803,-16.02
28816,4.56
28830,9.22
28843,-13.89
28856,6.73
28870,9.03
28883,-15.03
28896,4.66
28910,8.65
28923,-12.84
28936,5.03
28950,8.54
28963,-14.10
28977,4.66
28990,9.32
29003,-13.40
29016,4.54
29030,9.08
29043,-14.79
29056,5.43
29070,11.12
29083,-16.75
29096,4.90
29110,11.79
29123,-17.75
29136,6.42
29150,13.25
29163,-20.67
29177,7.04
29190,14.59
29203,-22.48
29216,6.74
29230,17.02
29243,-24.53
29256,8.28
29270,18.27
29283,-28.94
29296,9.66
29310,20.66
29323,-31.09
29336,10.96
29350,22.54
29363,-36.06
29376,11.92
29390,26.00
29403,-37.76
29417,12.01
29430,26.12
29443,-38.59
29456,11.43
29470,26.76
29483,-37.48
29497,11.76
29510,26.38
29523,-39.64
29536,12.87
29550,27.55
29563,-40.21
29576,11.92
29590,27.76
29603,-39.06
29617,11.74
29630,28.53
29643,-42.08
29656,13.57
29670,30.26
29683,-45.55
29697,14.13
29710,32.17
29723,-44.55
29737,12.33
29750,31.05
29763,-43.72
29777,13.42
29790,30.57
29803,-43.24
29817,10.97
29830,30.81
29843,-40.34
29857,11.19
29870,29.19
29883,-41.34
29896,11.53
29910,29.75
29923,-40.48
29936,10.64
29950,28.42
29963,-36.65
29976,7.98
29990,26.35
30003,-34.59
30017,10.51
30030,25.43
30043,-35.78
30056,7.20
30070,25.27
30083,-27.15
30096,3.22
30110,20.11
30123,-23.03
30136,5.29
30150,19.06
30163,-27.14
30176,6.73
30190,21.66
30203,-26.97
30216,3.81
30230,21.18
30243,-23.91
30256,6.37
30270,19.69
30283,-30.33
30296,7.29
30310,23.88
30323,-27.29
30336,3.07
30350,21.23
30363,-24.04
30376,5.43
30390,20.12
30403,-26.48
30416,3.48
30430,22.41
30443,-25.09
30456,3.57
30470,21.02
30483,-22.51
30496,1.77
30510,18.82
30523,-21.85
30536,3.77
30550,19.25
30563,-22.17
30576,1.36
30590,19.36
30603,-19.04
30616,0.62
30630,16.73
30643,-15.09
30656,-2.31
30670,15.01
30683,-13.84
30696,1.90
30710,18.38
30723,-31.99
30736,13.46
30750,24.00
30763,-19.60
30776,-19.02
30790,11.16
30803,12.23
30816,3.49
30830,2.59
30843,-14.48
30857,-10.36
30870,11.06
30883,2.37
30896,-0.48
30910,10.02
30923,-8.34
30936,-6.86
30950,9.75
30963,-6.85
30977,-3.14
30990,12.92
31003,-10.59
31016,-0.57
31030,15.32
31043,-13.77
31056,-5.84
31070,15.29
31083,-6.97
31096,-6.13
31110,12.30
31123,-5.82
31136,-6.09
31149,11.13
31163,-3.99
31176,-8.41
31190,10.73
31203,-0.60
31216,-8.66
31230,8.66
31243,-0.37
31256,-9.15
31270,9.44
31283,0.97
31297,-10.28
31310,8.28
31323,1.44
31336,-9.12
31350,8.42
31363,1.52
31377,-11.18
31390,8.67
31403,3.10
31416,-11.37
31430,8.47
31443,3.60
31456,-13.14
31470,8.69
31483,4.96
31496,-12.67
31510,7.95
31523,4.30
31536,-13.34
31550,9.16
31563,5.24
31576,-14.57
31590,8.98
31603,6.08
31616,-16.27
31630,10.80
31643,5.61
31657,-15.97
31670,10.68
31683,6.39
31697,-17.88
31710,6.93
31723,9.30
31736,-10.23
31750,5.78
31763,3.66
31776,-15.61
31790,9.30
31803,8.84
31816,-17.87
31830,10.03
31843,10.11
31856,-21.21
31870,10.18
31883,11.64
31897,-23.38
31910,11.50
31923,13.67
31937,-26.47
31950,12.32
31963,16.23
31977,-28.54
31990,11.18
32003,17.21
32017,-28.55
32030,11.16
32043,18.09
32056,-29.45
32070,12.05
32083,18.32
32097,-32.17
32110,12.69
32123,20.27
32136,-32.38
32150,12.58
32163,20.99
32176,-36.55
32190,15.67
32203,24.38
32216,-40.55
32230,13.84
32243,23.02
32256,-30.59
32270,7.36
32283,19.14
32296,-27.65
32310,13.82
32323,18.69
32336,-36.63
32350,11.85
32363,23.53
32376,-34.20
32390,14.72
32403,23.72
32417,-41.08
32430,15.27
32443,27.08
32456,-46.04
32470,18.73
32483,31.31
32496,-50.88
32510,18.21
32523,35.67
32537,-58.36
32550,23.78
32563,42.06
32577,-73.66
32590,29.32
32603,47.56
32617,-67.68
32630,12.43
32643,36.25
32656,-24.97
32670,-4.41
32683,15.44
32696,-24.63
32710,23.69
32723,21.72
32737,-54.33
32750,10.83
32763,35.75
32776,-40.21
32790,21.14
32803,31.76
32816,-60.54
32830,17.65
32843,39.64
32856,-58.65
32870,20.38
32883,41.44
32896,-58.26
32910,17.89
32923,39.15
32937,-57.87
32950,17.80
32963,40.06
32977,-61.92
32990,23.53
33003,45.71
33016,-77.91
33030,32.14
33043,67.63
33056,-138.25
33070,75.90
33083,86.23
33096,-108.03
33109,-33.34
33123,53.91
33136,-7.58
33150,47.33
33163,20.86
33176,-99.54
33189,0.50
33203,55.35
33216,-37.56
33230,30.32
33243,39.72
33256,-71.98
33270,12.11
33283,42.82
33296,-63.49
33310,23.67
33323,49.28
33336,-71.73
33350,24.64
33363,53.39
33377,-86.04
33390,31.16
33403,57.76
33416,-80.95
33430,12.80
33443,45.94
33456,-28.45
33469,-9.63
33483,20.81
33496,-29.67
33510,29.50
33523,30.58
33536,-74.63
33550,13.95
33563,51.69
33576,-58.01
33590,26.39
33603,48.15
33616,-81.35
33630,20.11
33643,54.52
33657,-77.15
33670,24.92
33683,57.46
33696,-79.12
33710,22.78
33723,57.08
33736,-83.22
33750,24.25
33763,59.52
33777,-84.53
33790,24.20
33803,61.46
33816,-83.24
33830,22.08
33843,59.50
33856,-82.02
33870,22.85
33883,60.32
33896,-85.75
33910,24.99
33923,67.92
33936,-103.39
33950,37.68
33963,65.39
33977,-70.08
33990,-18.47
34003,37.63
34016,1.35
34030,5.34
34043,13.26
34056,-52.22
34070,17.61
34083,42.01
34096,-60.90
34110,17.24
34123,51.58
34136,-62.01
34150,16.13
34163,46.43
34177,-69.61
34190,13.90
34203,52.56
34216,-64.90
34230,18.15
34243,52.01
34256,-69.79
34270,14.88
34283,53.06
34296,-67.36
34310,14.21
34323,52.06
34336,-67.26
34350,15.69
34363,53.46
34376,-67.52
34390,12.98
34403,51.99
34416,-63.75
34430,12.14
34443,50.93
34456,-61.26
34470,10.31
34483,48.85
34497,-59.50
34510,11.08
34523,49.30
34536,-58.41
34549,7.89
34563,48.34
34576,-55.87
34590,8.75
34603,47.04
34616,-54.56
34630,6.12
34643,46.77
34656,-51.61
34670,5.89
34683,48.54
34696,-62.92
34710,15.87
34723,54.62
34736,-62.74
34749,-3.62
34763,49.87
34776,-38.26
34790,2.85
34803,41.43
34816,-51.35
34830,2.27
34843,46.88
34856,-44.48
34870,-3.83
34883,43.55
34896,-34.12
34910,-3.46
34923,37.92
34936,-35.97
34949,-7.32
34963,38.40
34976,-25.37
34990,-12.48
35003,35.45
35016,-21.88
35030,-9.66
35043,33.48
35056,-23.79
35070,-15.90
35083,34.52
35096,-15.03
35110,-15.65
35123,34.44
35136,-23.75
35150,-12.06
35163,42.50
35176,-30.73
35189,-19.83
35203,47.22
35216,-22.77
35230,-19.45
35243,41.18
35256,-17.82
35270,-26.58
35283,35.24
35296,-3.82
35310,-28.49
35323,30.45
35336,2.98
35350,-34.48
35363,23.50
35376,15.10
35390,-37.33
35403,20.27
35416,19.47
35430,-37.33
35443,16.23
35456,19.51
35469,-38.40
35483,17.50
35496,25.16
35510,-41.02
35523,16.21
35536,24.51
35550,-43.13
35563,16.43
35576,28.16
35589,-43.56
35603,16.92
35616,27.40
35630,-46.16
35643,17.01
35656,29.27
35670,-44.94
35683,16.51
35696,29.49
35710,-48.81
35723,18.93
35736,32.30
35750,-51.42
35763,17.83
35776,33.36
35790,-51.74
35803,19.43
35816,34.30
35830,-55.15
35843,20.02
35856,35.66
35870,-55.54
35883,19.09
35896,36.39
35910,-56.34
35923,21.63
35936,40.28
35950,-73.02
35963,33.69
35976,50.40
35989,-83.02
36003,22.15
36016,51.89
36030,-66.10
36043,22.76
36056,45.20
36070,-73.07
36083,25.90
36096,48.37
36110,-77.58
36123,27.51
36136,52.95
36150,-77.10
36163,24.45
36176,52.16
36190,-81.53
36203,31.30
36216,55.33
36230,-86.94
36243,26.02
36256,57.65
36270,-82.94
36283,31.03
36296,56.78
36310,-89.78
36323,37.56
36336,30.37
36350,-93.35
36363,107.64
36377,51.72
36390,-173.50
36403,-2.60
36416,117.76
36430,-26.25
36443,39.10
36456,15.39
36470,-143.13
36483,23.89
36496,93.24
36510,-64.73
36523,39.95
36536,54.78
36550,-111.70
36563,23.49
36576,65.77
36590,-91.85
36603,33.58
36616,66.99
36629,-93.24
36643,29.68
36656,63.28
36670,-97.37
36683,31.07
36696,66.75
36710,-98.60
36723,30.83
36736,67.56
36750,-96.91
36763,30.58
36776,66.13
36790,-93.86
36803,26.95
36816,63.81
36830,-92.99
36843,31.42
36856,64.92
36870,-97.51
36883,29.60
36896,68.50
36910,-99.19
36923,33.14
36936,69.88
36950,-105.70
36963,32.71
36976,74.07
36990,-109.21
37003,36.84
37016,79.81
37030,-124.63
37043,43.35
37056,98.85
37070,-175.03
37083,81.97
37096,126.29
37110,-199.25
37123,37.82
37136,122.10
37150,-121.95
37163,27.88
37176,81.93
37190,-115.56
37203,35.33
37216,77.99
37230,-117.32
37243,30.72
37256,80.59
37270,-94.31
37283,23.64
37296,63.59
37310,-85.49
37323,19.60
37336,60.39
37350,-85.13
37363,28.54
37376,64.75
37389,-97.99
37403,30.36
37416,72.47
37430,-102.58
37443,29.05
37456,74.33
37470,-107.65
37483,33.35
37496,79.91
37510,-116.40
37523,34.69
37536,83.55
37550,-117.14
37563,32.18
37576,82.31
37590,-109.06
37603,27.14
37616,76.80
37630,-103.38
37643,28.61
37656,77.22
37670,-111.32
37683,34.84
37696,81.17
37710,-114.62
37723,27.56
37736,86.39
37750,-121.85
37763,44.93
37776,94.05
37790,-145.15
37803,34.87
37816,99.85
37829,-119.33
37843,26.38
37856,79.58
37869,-85.25
37883,4.29
37896,57.85
37909,-64.87
37923,22.47
37936,56.78
37950,-92.00
37963,24.81
37976,73.48
37990,-103.53
38003,32.05
38016,82.28
38030,-109.74
38043,18.41
38056,81.04
38070,-98.10
38083,24.67
38096,77.97
38109,-104.11
38123,22.13
38136,78.82
38149,-97.97
38163,19.50
38176,76.05
38190,-90.37
38203,14.36
38216,73.05
38229,-89.61
38243,18.09
38256,73.70
38269,-87.85
38283,9.21
38296,72.04
38309,-82.92
38323,20.03
38336,73.15
38350,-96.19
38363,10.72
38377,81.26
38389,-90.72
38403,16.41
38416,78.93
38430,-91.24
38443,5.50
38456,75.80
38469,-77.72
38483,7.53
38496,71.05
38509,-76.94
38523,2.72
38536,71.52
38550,-75.56
38563,6.38
38576,71.29
38589,-70.65
38603,-7.17
38616,67.28
38630,-58.26
38643,0.52
38656,64.78
38670,-68.31
38683,-6.30
38696,70.58
38710,-58.83
38723,-8.99
38736,66.95
38750,-55.90
38763,-10.04
38776,56.98
38790,-29.55
38803,-31.48
38816,30.25
38830,18.16
38843,-29.46
38856,4.65
38870,14.73
38883,-12.96
38896,2.94
38909,2.22
38923,-11.24
38936,7.40
38950,8.60
38963,-6.33
38976,1.50
38989,0.35
39003,-10.02
39016,7.27
39029,6.66
39043,-13.49
39056,7.50
39070,9.88
39083,-22.79
39096,13.46
39110,16.37
39123,-36.17
39136,18.00
39149,23.09
39163,-46.52
39177,30.76
39189,3.11
39203,-32.56
39216,51.00
39230,-18.67
39243,-53.48
39256,66.23
39270,-13.80
39283,-41.98
39296,83.17
39310,-52.54
39323,-49.31
39336,97.95
39349,-37.23
39363,-64.40
39376,88.90
39390,-11.39
39403,-62.85
39416,74.08
39430,-18.34
39443,-67.22
39456,82.02
39469,-10.20
39483,-68.19
39496,78.51
39510,-4.93
39523,-73.08
39536,71.66
39549,6.57
39563,-79.69
39576,64.11
39590,19.81
39603,-81.16
39616,65.80
39630,15.27
39643,-115.51
39656,132.99
39669,0.83
39683,-87.92
39696,1.57
39710,30.94
39723,-6.21
39736,27.33
39749,29.01
39763,-56.28
39776,2.93
39789,18.67
39803,-75.36
39816,50.34
39830,73.68
39843,-78.69
39856,21.55
39870,44.19
39883,-97.50
39896,32.32
39910,64.76
39923,-90.92
39936,36.39
39950,64.93
39963,-101.83
39976,35.41
39989,67.96
40003,-108.10
40016,35.96
40030,72.21
40043,-110.49
40056,39.82
40069,75.60
40083,-113.63
40096,35.76
40110,76.74
40123,-115.45
40136,41.73
40149,78.36
40163,-122.46
40176,38.77
40189,82.90
40203,-122.83
40216,45.13
40229,92.49
40243,-166.78
40256,80.56
40269,87.09
40283,-89.84
40296,-52.15
40309,42.87
40323,-0.92
40336,73.20
40350,29.96
40363,-150.24
40376,11.19
40389,86.55
40403,-81.61
40416,59.25
40430,77.70
40443,-139.94
40456,31.07
40470,83.87
40483,-129.38
40496,48.74
40509,95.04
40523,-137.58
40536,46.49
40549,94.69
40563,-143.78
40576,43.13
40589,96.71
40603,-140.29
40616,46.18
40630,99.05
40643,-152.84
40656,55.48
40670,105.91
40683,-161.73
40696,48.00
40710,109.33
40723,-155.53
40736,52.78
40750,107.79
40763,-162.82
40776,49.14
40790,110.06
40803,-158.27
40816,51.65
40830,109.65
40843,-161.68
40856,50.65
40870,110.79
40883,-161.72
40896,49.77
40910,111.04
40923,-160.24
40936,50.81
40950,110.74
40963,-162.06
40976,49.96
40990,114.56
41003,-172.00
41016,59.08
41030,129.96
41043,-212.09
41056,83.54
41070,140.26
41083,-193.94
41096,22.83
41110,112.74
41123,-89.51
41136,16.32
41149,66.42
41163,-116.68
41176,54.56
41189,86.29
41203,-150.89
41216,37.39
41230,106.82
41243,-128.47
41256,47.23
41270,94.04
41283,-154.35
41296,40.92
41310,105.47
41323,-146.36
41336,47.49
41350,107.65
41363,-152.47
41376,44.10
41390,107.90
41403,-157.87
41416,48.92
41430,112.29
41443,-159.27
41456,43.09
41470,112.01
41483,-152.74
41496,45.72
41510,110.64
41523,-158.82
41536,45.06
41550,112.98
41563,-160.15
41576,46.89
41590,117.21
41603,-162.56
41616,44.65
41629,117.14
41643,-163.98
41656,47.13
41670,117.26
41683,-158.19
41696,37.23
41710,111.56
41723,-146.18
41736,42.19
41750,110.31
41763,-161.22
41776,45.57
41790,115.70
41803,-139.20
41816,14.48
41830,81.71
41843,-59.94
41856,-7.68
41870,72.34
41883,-135.25
41896,96.43
41910,146.94
41923,-306.81
41936,84.16
41950,213.39
41963,-233.16
41976,26.60
41989,170.66
42003,-172.65
42016,45.88
42030,122.94
42043,-203.25
42056,33.91
42069,140.40
42083,-116.09
42096,14.05
42110,85.03
42123,-105.83
42136,27.04
42149,86.11
42163,-132.90
42176,27.89
42189,114.81
42203,-155.43
42216,52.88
42230,133.51
42243,-174.88
42256,16.34
42270,128.09
42283,-138.33
42296,30.08
42310,114.36
42323,-142.64
42336,18.17
42350,111.11
42363,-121.58
42376,18.89
42389,99.13
42403,-111.85
42416,10.50
42429,96.93
42443,-116.07
42456,25.26
42470,100.54
42483,-117.21
42496,0.78
42509,94.18
42523,-82.55
42536,7.33
42549,82.68
42563,-99.49
42576,7.79
42589,93.06
42603,-103.65
42616,5.83
42629,104.08
42643,-107.92
42656,6.37
42670,126.65
42683,-183.69
42696,58.03
42709,137.52
42723,-61.35
42736,-149.91
42749,1.19
42763,141.17
42776,37.37
42789,81.15
42803,-337.39
42816,117.37
42829,272.84
42843,-276.40
42856,-123.60
42870,214.78
42883,19.09
42896,43.07
42909,59.52
42923,-222.21
42936,-71.09
42950,127.57
42963,69.53
42976,-58.58
42989,4.68
43003,23.66
43016,16.09
43030,32.41
43043,-105.93
43056,-71.48
43070,144.81
43083,-72.05
43096,35.02
43109,137.76
43123,-159.61
43136,-78.14
43149,141.35
43163,-42.84
43176,-22.00
43189,105.29
43203,-103.68
43216,-49.40
43229,129.78
43243,-64.30
43256,-39.77
43269,118.42
43283,-75.44
43296,-55.95
43310,117.72
43323,-64.48
43336,-52.00
43349,116.34
43363,-54.09
43376,-61.23
43390,109.79
43403,-46.77
43416,-59.01
43430,105.52
43443,-46.77
43456,-66.83
43470,109.17
43483,-37.27
43496,-66.21
43510,106.30
43523,-41.61
43536,-70.11
43549,117.43
43563,-46.91
43576,-102.50
43590,192.07
43603,-115.08
43616,-31.67
43629,104.23
43643,-20.22
43656,-125.70
43669,17.92
43683,135.33
43696,-5.63
43709,14.59
43723,-70.47
43736,-136.29
43749,101.14
43763,66.43
43776,-48.71
43789,92.26
43803,-27.92
43816,-123.76
43830,70.39
43843,57.35
43856,-125.96
43869,45.89
43883,69.84
43896,-52.41
43909,67.36
43923,-24.27
43936,-133.77
43949,97.14
43963,44.89
43976,-92.44
43989,97.73
44002,4.82
44016,-135.13
44029,98.41
44043,28.83
44056,-117.50
44069,106.13
44083,21.41
44096,-133.51
44109,104.46
44123,24.49
44136,-128.79
44150,110.84
44163,25.87
44176,-142.26
44189,103.25
44203,41.16
44216,-136.52
44229,96.45
44243,45.44
44256,-144.09
44269,88.17
44283,58.72
44296,-145.63
44309,87.39
44323,59.79
44336,-148.46
44349,93.54
44362,54.16
44376,-153.39
44389,98.58
44403,56.47
44416,-155.32
44429,99.54
44443,61.49
44456,-164.75
44469,106.31
44483,51.84
44496,-182.88
44510,169.64
44523,28.55
44536,-203.02
44549,136.63
44563,20.92
44576,-80.95
44589,57.48
44603,48.53
44616,-154.38
44629,71.70
44643,129.89
44656,-164.66
44669,33.30
44683,92.51
44696,-177.34
44709,86.76
44723,134.79
44737,-183.37
44749,63.18
44763,98.44
44776,-186.10
44790,58.98
44803,121.81
44816,-164.44
44829,65.54
44843,114.31
44856,-170.37
44869,32.26
44883,114.05
44896,-163.50
44909,79.15
44923,122.20
44936,-211.93
44949,56.49
44963,142.13
44976,-191.86
44989,72.16
45003,135.39
45016,-213.65
45029,62.76
45043,142.74
45056,-209.10
45070,74.35
45083,145.78
45096,-221.30
45109,74.26
45123,140.32
45136,-222.72
45149,97.88
45163,129.64
45176,-226.63
45189,78.65
45203,141.41
45216,-216.18
45229,85.01
45243,148.57
45256,-230.66
45269,62.92
45283,153.33
45296,-218.60
45309,77.81
45323,150.22
45336,-228.10
45349,77.51
45363,152.13
45376,-230.09
45389,58.31
45403,160.02
45416,-197.21
45429,61.78
45443,136.36
45457,-215.66
45469,61.14
45483,152.40
45496,-206.57
45509,66.73
45523,148.23
45536,-216.87
45549,59.01
45563,150.65
45576,-210.01
45589,64.85
45603,150.46
45616,-213.86
45629,59.15
45643,150.29
45656,-209.70
45669,62.86
45683,149.77
45696,-210.18
45709,56.85
45723,144.12
45736,-189.82
45749,47.20
45763,112.63
45776,-129.68
45789,40.96
45803,87.00
45816,-190.07
45830,84.81
45843,167.92
45856,-226.92
45869,54.61
45883,153.31
45896,-241.46
45909,71.71
45923,187.42
45936,-231.23
45949,62.03
45963,169.76
45976,-252.05
45989,63.32
46003,184.12
46016,-238.49
46030,61.95
46043,180.58
46056,-238.59
46069,57.74
46083,176.74
46096,-237.46
46109,57.28
46123,180.05
46136,-236.93
46150,59.84
46163,184.37
46176,-248.57
46189,70.45
46203,149.11
46216,-233.69
46229,134.72
46243,173.61
46256,-348.69
46269,32.02
46283,217.01
46296,22.50
46310,-137.98
46323,-36.07
46336,-13.82
46349,139.11
46363,84.61
46376,-249.69
46389,0.17
46403,170.57
46416,-132.21
46429,74.22
46443,144.41
46456,-244.70
46469,25.36
46483,175.32
46496,-214.54
46509,55.37
46523,193.08
46536,-228.73
46549,36.81
46563,185.10
46576,-231.02
46589,38.83
46603,190.31
46616,-225.84
46629,33.58
46643,190.10
46656,-221.30
46669,35.82
46683,192.12
46696,-229.07
46710,30.40
46723,196.92
46736,-226.78
46749,27.69
46763,199.67
46776,-224.10
46789,24.86
46803,201.05
46816,-227.34
46829,23.66
46843,205.32
46856,-226.21
46869,16.40
46883,206.61
46896,-219.91
46909,15.88
46923,206.73
46936,-225.00
46949,15.73
46963,210.15
46976,-222.09
46989,6.92
47003,210.56
47016,-214.41
47029,9.57
47043,208.27
47056,-217.32
47069,-0.31
47083,213.58
47096,-210.95
47109,2.28
47123,214.38
47136,-218.91
47149,-2.89
47163,221.89
47176,-212.59
47190,-9.73
47202,215.20
47219,-200.60
47229,-13.11
47243,208.99
47256,-191.52
47269,-16.08
47283,205.04
47296,-188.81
47309,-19.10
47323,210.71
47336,-194.05
47349,-19.75
47363,253.06
47376,-312.90
47389,65.66
47403,320.86
47416,-294.25
47430,-99.23
47443,143.89
47456,33.73
47470,-29.83
47482,86.99
47496,-102.80
47509,-31.39
47523,125.72
47536,-166.26
47549,-23.13
47563,227.83
47576,-114.90
47589,-44.09
47603,171.64
47616,-181.72
47629,-56.76
47643,211.23
47656,-142.51
47670,-44.09
47683,211.08
47696,-150.90
47709,-62.27
47723,203.30
47736,-148.35
47749,-63.68
47763,207.04
47776,-138.67
47789,-66.36
47803,204.65
47816,-131.05
47829,-71.94
47843,200.76
47856,-127.40
47869,-76.83
47883,199.85
47896,-119.13
47909,-81.89
47923,197.92
47936,-112.55
47949,-82.99
47963,196.23
47976,-111.64
47989,-89.53
48003,198.80
48016,-105.42
48029,-93.29
48043,196.74
48056,-101.80
48070,-96.33
48083,198.30
48096,-96.93
48109,-103.80
48122,196.45
48136,-91.56
48149,-104.73
48163,197.40
48176,-88.68
48189,-111.69
48202,196.97
48216,-82.34
48229,-115.68
48243,197.37
48256,-78.16
48269,-120.26
48283,196.45
48296,-74.22
48309,-124.96
48323,199.40
48336,-72.13
48349,-128.26
48363,201.21
48376,-70.44
48389,-135.44
48403,207.47
48416,-70.41
48429,-166.22
48443,246.71
48456,-1.22
48469,-208.94
48483,52.41
48496,54.09
48509,-27.13
48523,175.08
48536,-83.86
48549,-217.47
48563,155.38
48576,10.81
48589,-105.22
48603,199.23
48616,-35.31
48630,-182.50
48643,169.63
48656,-26.27
48669,-157.84
48683,187.28
48696,1.40
48709,-170.77
48723,149.44
48736,17.78
48749,-152.30
48763,146.26
48776,4.55
48789,-171.60
48803,149.22
48816,25.64
48830,-165.56
48843,152.73
48856,21.63
48870,-180.35
48883,153.88
48896,25.46
48909,-188.27
48923,166.09
48936,20.08
48949,-182.16
48963,165.40
48976,36.70
48989,-215.26
49003,142.63
49016,77.02
49029,-193.20
49043,146.12
49056,37.22
49069,-217.25
49083,175.94
49096,41.38
49110,-213.93
49123,191.30
49136,29.74
49149,-230.80
49163,196.08
49176,36.31
49189,-234.63
49203,193.37
49216,44.41
49230,-236.45
49243,190.36
49256,54.31
49269,-243.25
49283,179.06
49296,69.12
49309,-246.60
49323,166.17
49336,84.38
49349,-245.11
49363,165.15
49376,77.39
49389,-250.05
49403,178.98
49416,72.92
49429,-259.23
49442,183.88
49456,80.49
49469,-262.37
49482,182.78
49496,83.79
49510,-272.04
49523,184.53
49536,87.01
49549,-270.39
49563,188.07
49576,82.20
49589,-274.63
49603,192.49
49616,87.40
49630,-281.41
49643,188.46
49656,97.93
49669,-283.45
49683,177.12
49696,108.70
49710,-282.53
49722,171.10
49736,115.59
49749,-285.37
49762,161.63
49776,127.26
49789,-286.32
49802,151.14
49816,141.04
49829,-286.95
49843,140.03
49856,147.05
49869,-285.58
49883,136.50
49896,151.20
49910,-289.16
49923,135.92
49936,156.35
49950,-293.22
49963,136.09
49976,160.25
49989,-296.41
50003,134.33
50016,160.03
50029,-294.40
50043,139.85
50056,147.34
50069,-292.89
50083,157.46
50096,149.82
50109,-294.63
50123,89.42
50136,199.94
50149,-282.97
50163,136.70
50176,120.43
50189,-279.61
50203,233.99
50216,74.98
50229,-376.90
50243,142.78
50256,234.55
50269,-246.68
50283,123.93
50296,169.35
50309,-354.54
50323,63.76
50336,219.93
50349,-274.12
50363,111.95
50376,232.04
50390,-309.01
50403,64.24
50416,211.65
50430,-307.98
50443,77.44
50456,233.60
50469,-295.74
50482,76.24
50496,227.73
50509,-302.18
50522,70.19
50536,222.53
50549,-278.61
50563,68.74
50576,141.66
50589,-197.69
50602,-24.84
50616,360.19
50629,-82.33
50643,-254.96
50656,-125.92
50669,-126.81
50683,496.96
50696,423.53
50710,-500.50
50723,-282.35
50736,94.63
50749,-179.17
50763,311.18
50776,246.44
50789,-254.89
50802,52.94
50816,115.77
50829,-399.33
50842,94.20
50856,171.06
50869,-10.50
50882,-55.63
50896,48.92
50909,2.49
50923,63.31
50936,27.60
50950,-304.28
50962,44.93
50976,253.51
50989,-181.74
51002,77.97
51016,206.66
51029,-302.50
51042,10.61
51056,214.25
51070,-262.24
51082,46.59
51096,241.57
51110,-248.66
51122,36.95
51136,225.75
51149,-274.26
51163,24.36
51176,247.48
51189,-303.92
51203,60.60
51216,246.11
51229,-262.22
51243,44.70
51256,199.56
51270,-328.92
51282,89.82
51296,269.98
51309,-129.51
51323,-164.79
51336,44.70
51349,21.59
51363,97.88
51376,106.09
51390,-270.34
51402,-1.82
51416,225.66
51429,-204.70
51443,29.92
51456,236.35
51469,-251.92
51482,-3.02
51496,235.77
51509,-265.22
51522,9.17
51536,263.92
51549,-248.76
51562,-3.60
51576,254.70
51589,-248.91
51603,-7.54
51616,251.89
51629,-251.00
51642,-9.32
51656,258.28
51669,-242.19
51682,-11.54
51696,257.95
51709,-242.89
51723,-18.71
51736,258.32
51749,-241.69
51763,-21.44
51776,263.65
51789,-227.31
51803,-28.76
51816,223.83
51829,-196.26
51842,-19.89
51856,236.56
51869,-206.90
51883,-37.63
51896,231.97
51910,-210.58
51922,-29.59
51936,255.42
51949,-208.76
51963,-41.60
51976,253.43
51989,-224.88
52003,-43.46
52016,272.56
52030,-224.61
52042,-49.93
52056,280.02
52069,-225.21
52082,-56.08
52096,276.04
52109,-218.27
52123,-60.03
52136,275.79
52149,-213.01
52162,-61.90
52176,280.34
52189,-222.17
52203,-66.05
52216,313.16
52230,-267.15
52243,-109.42
52256,409.88
52269,-187.42
52283,-139.87
52296,164.45
52310,-207.39
52323,44.03
52336,284.14
52349,-69.37
52362,-178.32
52376,85.85
52389,-115.65
52403,-17.15
52416,254.30
52430,-147.48
52443,-91.00
52456,242.76
52469,-168.64
52482,-95.08
52496,250.99
52509,-168.02
52522,-99.49
52536,267.26
52549,-149.27
52563,-96.99
52576,258.04
52589,-160.43
52602,-113.61
52616,258.45
52630,-146.28
52643,-108.47
52656,261.00
52669,-147.99
52683,-116.07
52696,260.40
52709,-139.81
52723,-119.57
52736,256.89
52749,-133.42
52763,-126.45
52776,253.78
52789,-124.39
52803,-127.50
52816,251.71
52830,-122.42
52843,-130.59
52856,253.41
52869,-120.21
52882,-134.99
52896,250.76
52909,-114.94
52923,-137.34
52936,257.98
52949,-116.48
52963,-146.11
52976,260.23
52989,-115.95
53003,-146.08
53016,266.95
53030,-116.56
53043,-155.07
53056,270.93
53069,-112.68
53083,-159.86
53096,270.54
53109,-110.92
53122,-177.93
53136,285.45
53149,-22.05
53162,-229.35
53176,93.23
53189,48.27
53202,-79.68
53216,239.41
53229,-131.99
53243,-226.20
53256,342.66
53269,-163.76
53282,-230.17
53296,308.29
53309,-4.18
53323,-120.97
53336,253.21
53349,-148.09
53363,-271.04
53376,223.34
53389,-1.20
53403,-103.19
53416,205.23
53429,25.63
53443,-244.03
53456,124.70
53469,26.06
53483,-131.82
53496,188.62
53509,-63.71
53523,-209.98
53536,259.92
53549,-20.43
53563,-172.07
53576,253.69
53589,-85.96
53602,-252.34
53616,253.52
53629,6.11
53643,-192.88
53656,236.20
53669,-34.63
53683,-232.21
53696,232.89
53709,-4.15
53723,-217.72
53736,230.83
53749,-4.64
53763,-229.47
53776,229.17
53789,-3.39
53802,-226.67
53816,236.55
53829,-3.39
53843,-241.68
53856,236.11
53869,9.58
53883,-237.81
53896,229.10
53909,11.65
53923,-245.65
53936,222.48
53949,27.69
53963,-243.36
53976,217.54
53989,27.70
54003,-249.87
54016,216.61
54029,35.69
54042,-250.31
54056,214.39
54069,40.42
54083,-258.35
54096,215.33
54109,44.88
54122,-258.29
54136,211.73
54149,49.41
54163,-265.21
54176,211.15
54189,58.98
54203,-264.09
54216,203.05
54229,59.45
54243,-265.93
54256,204.08
54269,67.26
54283,-269.69
54296,198.80
54309,72.48
54322,-270.24
54336,194.48
54349,76.66
54363,-270.97
54376,195.04
54389,80.15
54403,-278.88
54416,193.01
54429,91.23
54443,-281.08
54456,185.25
54469,93.06
54483,-276.92
54496,190.36
54509,91.28
54523,-287.76
54536,187.54
54549,98.76
54562,-284.93
54576,207.49
54589,69.03
54602,-319.57
54616,273.38
54629,95.36
54642,-280.37
54655,48.29
54669,124.52
54683,-165.34
54696,122.60
54709,143.08
54722,-243.20
54736,177.27
54749,2.68
54763,-386.76
54776,212.25
54789,242.81
54803,-218.57
54816,153.59
54829,73.52
54842,-353.79
54856,96.33
54869,213.95
54883,-269.64
54896,96.85
54909,224.83
54923,-246.57
54936,81.88
54949,108.37
54963,-327.56
54976,185.58
54989,167.73
55002,-278.13
55016,160.54
55029,113.99
55043,-328.41
55056,164.72
55069,188.99
55082,-304.03
55096,124.15
55109,158.97
55123,-310.19
55136,137.24
55149,185.26
55163,-301.10
55176,121.86
55189,181.63
55203,-311.37
55216,119.93
55229,192.78
55243,-310.47
55256,113.96
55269,193.76
55283,-303.68
55296,116.82
55309,191.19
55323,-310.51
55336,109.07
55349,198.38
55363,-302.58
55376,106.47
55389,203.13
55403,-309.86
55416,96.97
55429,208.81
55443,-299.65
55456,92.41
55469,210.53
55483,-303.74
55496,88.10
55509,216.01
55523,-300.20
55536,82.43
55549,217.35
55563,-300.47
55576,80.39
55589,225.09
55603,-301.54
55616,69.30
55629,231.54
55643,-298.91
55656,61.53
55669,251.53
55683,-291.41
55696,-0.01
55709,258.78
55723,-252.23
55736,67.39
55749,208.87
55763,-316.75
55776,65.57
55789,237.51
55803,-301.97
55816,74.18
55829,263.24
55843,-305.40
55856,38.03
55869,240.28
55883,-307.78
55896,50.57
55909,267.75
55923,-297.11
55936,42.65
55949,259.58
55963,-303.92
55976,33.18
55989,263.60
56003,-298.41
56016,33.13
56029,269.25
56042,-297.04
56056,28.23
56069,268.60
56083,-297.67
56096,26.82
56109,273.40
56123,-297.04
56136,17.17
56149,275.25
56163,-289.12
56176,17.14
56189,276.53
56203,-291.91
56215,8.42
56229,278.12
56243,-284.55
56256,9.07
56269,280.59
56282,-287.67
56296,-0.18
56309,284.32
56323,-279.87
56336,-3.37
56349,284.37
56363,-279.46
56376,-11.38
56389,289.80
56403,-273.31
56416,-14.32
56429,289.11
56443,-276.31
56456,-21.33
56469,295.42
56483,-267.32
56496,-22.06
56509,289.64
56523,-268.96
56535,-27.93
56549,294.27
56563,-261.18
56576,-32.00
56589,294.17
56603,-260.92
56616,-35.76
56629,295.90
56643,-255.90
56656,-45.34
56669,288.64
56683,-206.60
56696,-90.16
56709,256.81
56723,-186.79
56736,-18.65
56754,266.29
56762,-265.36
56775,-75.85
56789,303.88
56802,-204.84
56815,-48.68
56829,287.09
56843,-243.47
56856,-79.10
56869,298.87
56883,-220.55
56896,-65.35
56909,299.33
56923,-230.62
56936,-73.91
56949,301.79
56963,-225.61
56976,-78.33
56989,301.02
57003,-219.37
57016,-82.93
57029,301.04
57043,-215.03
57056,-89.03
57069,304.45
57083,-211.41
57096,-93.80
57109,303.40
57123,-208.96
57136,-96.75
57149,304.73
57163,-203.34
57176,-102.70
57189,304.24
57202,-201.21
57216,-103.09
57229,306.08
57243,-197.78
57256,-114.76
57269,308.54
57283,-192.97
57296,-105.71
57309,273.77
57323,-153.24
57336,-124.18
57349,332.04
57363,-199.85
57376,-184.38
57389,291.93
57403,-134.22
57416,-56.28
57429,318.84
57443,-238.15
57456,-185.00
57469,309.27
57482,-150.64
57496,-108.08
57509,332.48
57523,-181.22
57536,-163.07
57549,306.57
57563,-167.64
57576,-150.12
57589,321.41
57602,-158.58
57616,-150.91
57629,314.62
57643,-162.50
57656,-161.97
57669,316.76
57682,-149.44
57696,-164.77
57709,313.02
57723,-147.67
57736,-167.58
57749,313.81
57763,-141.17
57776,-173.73
57789,312.86
57802,-136.93
57816,-176.94
57829,313.15
57843,-132.93
57856,-182.90
57869,312.06
57882,-126.71
57896,-184.06
57909,312.02
57923,-125.20
57936,-190.63
57949,312.14
57963,-117.85
57976,-193.97
57989,310.38
58002,-114.85
58016,-196.84
58029,312.08
58043,-110.58
58056,-204.41
58069,309.04
58082,-102.76
58096,-203.88
58109,308.25
58122,-100.62
58135,-210.40
58149,304.82
58162,-93.10
58176,-211.37
58189,306.59
58202,-90.47
58215,-218.23
58229,303.59
58242,-82.76
58256,-221.11
58269,301.71
58282,-78.38
58296,-223.70
58309,304.21
58322,-77.44
58336,-230.54
58349,302.72
58362,-69.68
58376,-231.43
58389,300.61
58402,-66.26
58416,-234.28
58429,298.44
58442,-62.69
58456,-238.87
58469,297.38
58482,-53.25
58496,-239.53
58509,290.42
58522,-50.99
58536,-241.02
58549,278.23
58562,-9.35
58576,-265.15
58589,235.94
58602,11.48
58616,-208.88
58629,247.95
58642,-49.24
58656,-255.93
58669,276.94
58682,-8.35
58696,-236.26
58709,272.69
58723,-35.37
58736,-258.96
58749,274.67
58762,-15.84
58776,-253.35
58789,271.56
58802,-11.09
58816,-259.12
58829,268.70
58842,-8.54
58856,-263.14
58869,268.41
58882,-3.17
58896,-264.79
58909,266.09
58922,1.87
58936,-268.60
58949,262.56
58962,9.48
58976,-268.14
58989,256.88
59002,11.17
59016,-272.04
59029,257.87
59042,21.15
59056,-277.10
59069,251.42
59082,24.22
59096,-275.35
59110,254.68
59122,28.06
59135,-294.14
59149,238.61
59162,86.78
59176,-284.81
59189,197.07
59202,34.90
59216,-295.81
59229,281.89
59242,88.16
59256,-317.90
59269,214.80
59282,47.93
59296,-305.42
59309,251.67
59322,81.13
59336,-303.02
59349,231.49
59363,70.48
59376,-309.06
59389,226.24
59402,75.75
59416,-304.71
59429,231.64
59442,82.10
59456,-311.01
59469,226.27
59482,84.27
59496,-309.84
59509,222.70
59522,91.62
59536,-312.87
59549,214.61
59562,95.00
59576,-308.44
59589,214.20
59602,100.18
59616,-311.91
59629,208.88
59642,105.20
59656,-316.61
59669,201.34
59682,116.16
59696,-311.13
59709,198.28
59722,117.00
59736,-316.66
59749,192.17
59762,122.39
59776,-312.08
59789,190.60
59802,124.48
59816,-315.49
59829,187.35
59842,129.85
59856,-314.51
59869,182.44
59882,132.06
59896,-313.90
59909,177.71
59922,138.11
59936,-314.24
59949,180.16
59962,133.77
59976,-316.94
59989,174.24
60002,142.38
60016,-307.13
60029,171.87
60042,139.29
60056,-319.26
60069,164.49
60082,152.85
60096,-306.49
60109,160.80
60122,149.02
60136,-311.78
60149,154.18
60162,156.43
60176,-308.70
60189,150.64
60202,160.16
60216,-305.91
60229,141.83
60242,172.25
60256,-303.45
60269,94.79
60282,186.84
60296,-264.41
60309,141.16
60322,144.44
60336,-329.00
60349,125.42
60362,187.23
60376,-280.82
60389,133.70
60402,168.33
60416,-313.11
60429,120.87
60442,181.56
60456,-302.39
60469,118.64
60482,186.47
60496,-296.98
60509,115.98
60523,184.71
60536,-302.90
60549,110.39
60562,192.00
60576,-301.16
60589,104.13
60602,198.77
60616,-299.00
60629,102.19
60642,199.99
60656,-302.51
60669,95.00
60682,204.17
60696,-296.06
60709,95.30
60722,203.61
60736,-297.94
60749,87.51
60762,212.76
60776,-295.74
60789,79.65
60802,203.52
60816,-268.40
60829,10.05
60842,303.49
60856,-208.89
60869,-68.32
60882,123.39
60896,-245.86
60909,185.37
60922,294.54
60936,-343.38
60949,-18.53
60962,195.64
60976,-288.18
60989,99.28
61002,274.21
61016,-292.91
61029,44.62
61042,231.01
61056,-307.91
61069,46.21
61082,248.78
61096,-290.02
61109,48.09
61122,253.39
61136,-291.49
61149,36.60
61162,256.60
61176,-288.22
61189,22.69
61202,256.20
61216,-278.78
61229,12.94
61242,285.75
61256,-276.57
61269,-44.24
61282,286.28
61296,-220.05
61309,-6.95
61322,251.80
61336,-287.29
61349,-23.51
61362,276.97
61376,-220.64
61389,14.28
61402,238.77
61416,-271.68
61429,-14.31
61442,248.18
61456,-248.19
61472,23.27
61482,272.51
61495,-262.33
61509,-20.33
61522,249.22
61535,-258.39
61549,-6.39
61562,282.98
61576,-244.44
61589,-30.18
61602,265.75
61616,-250.52
61629,-21.38
61642,279.54
61656,-248.77
61669,-33.08
61682,273.04
61696,-242.61
61709,-27.96
61722,276.85
61736,-244.05
61749,-39.91
61762,281.80
61776,-238.40
61789,-48.43
61802,289.95
61816,-236.71
61829,-60.03
61842,297.10
61856,-228.37
61869,-74.16
61882,294.31
61896,-215.57
61909,-73.52
61922,291.01
61936,-217.48
61949,-81.46
61962,294.59
61976,-206.49
61989,-85.26
62002,293.94
62016,-211.56
62029,-84.91
62042,300.38
62056,-217.12
62069,-87.35
62082,303.81
62096,-212.04
62109,-91.33
62122,303.10
62136,-209.24
62149,-96.83
62162,302.58
62176,-202.01
62189,-99.99
62202,301.62
62216,-202.83
62229,-101.16
62242,305.48
62256,-200.76
62269,-106.51
62282,305.68
62296,-195.00
62309,-111.79
62322,303.15
62336,-189.99
62349,-116.63
62362,307.83
62376,-185.71
62389,-121.81
62402,305.03
62416,-183.12
62429,-121.48
62442,300.73
62456,-172.69
62469,-114.82
62482,205.41
62496,-45.40
62509,-121.03
62522,263.55
62536,-167.93
62549,-244.82
62563,308.56
62576,-67.80
62589,-57.18
62602,303.23
62616,-243.70
62629,-224.56
62642,304.41
62656,-106.21
62669,-110.76
62682,324.32
62696,-165.12
62709,-184.20
62722,299.38
62736,-146.24
62749,-160.51
62762,318.75
62776,-142.98
62789,-170.67
62802,308.51
62816,-137.80
62829,-163.15
62842,272.33
62855,-45.76
62869,-229.03
62882,225.41
62896,-117.19
62909,-89.19
62922,410.46
62936,-114.11
62949,-441.25
62962,205.98
62975,39.37
62989,-18.57
63002,331.10
63016,-195.45
63029,-270.98
63042,249.09
63055,-87.72
63069,-150.89
63082,328.59
63096,-81.69
63109,-206.57
63122,271.65
63135,-111.46
63149,-201.33
63162,311.32
63175,-92.98
63189,-207.34
63202,297.72
63216,-95.02
63229,-202.78
63242,304.01
63255,-91.32
63269,-214.26
63282,298.06
63296,-85.50
63309,-218.04
63322,302.21
63336,-79.46
63349,-220.71
63362,302.37
63375,-79.48
63389,-225.67
63402,302.66
63416,-76.77
63429,-226.88
63442,305.46
63455,-74.05
63469,-235.24
63482,301.99
63495,-63.30
63509,-234.18
63522,299.15
63536,-62.77
63549,-239.77
63562,296.88
63576,-56.38
63589,-240.33
63602,297.89
63616,-51.57
63629,-246.61
63642,293.59
63656,-46.91
63669,-247.69
63682,292.52
63695,-40.46
63709,-249.92
63722,289.59
63735,-39.61
63749,-254.12
63762,288.86
63776,-28.90
63792,-256.22
63802,284.28
63815,-26.04
63829,-260.46
63842,281.02
63855,-18.96
63869,-261.38
63882,280.32
63895,-14.35
63909,-265.93
63922,276.59
63936,-10.64
63949,-265.15
63962,272.55
63975,-6.02
63989,-265.25
64002,272.02
64015,-1.56
64029,-272.08
64042,262.77
64055,14.71
64069,-275.85
64082,234.72
64095,83.37
64109,-290.02
64122,199.41
64135,2.91
64149,-231.52
64162,254.03
64176,124.07
64189,-297.15
64202,-49.89
64216,213.77
64229,-96.23
64242,157.04
64255,-3.31
64269,-346.55
64282,191.27
64296,114.60
64309,-211.58
64322,249.11
64335,27.11
64349,-319.78
64362,212.67
64376,46.71
64389,-278.97
64402,250.52
64415,64.66
64429,-273.58
64442,208.91
64456,69.91
64469,-301.08
64482,200.14
64495,91.30
64509,-262.23
64522,203.06
64535,48.27
64549,-294.80
64562,232.39
64575,83.08
64589,-287.45
64602,222.06
64615,63.93
64629,-306.80
64642,222.20
64655,79.79
64669,-299.88
64682,223.57
64695,89.94
64709,-299.98
64722,213.84
64735,83.99
64749,-310.85
64762,211.60
64776,95.01
64789,-301.45
64802,212.96
64816,100.39
64829,-306.52
64842,201.23
64855,99.05
64869,-305.39
64882,198.91
64896,109.66
64909,-300.38
64922,191.22
64936,110.34
64949,-298.45
64962,171.12
64976,138.31
64989,-294.04
65002,135.15
65016,151.41
65029,-285.22
65042,143.92
65056,136.76
65069,-231.18
65082,98.80
65095,93.68
65109,-284.32
65122,185.61
65136,168.64
65149,-287.82
65162,157.43
65176,112.51
65189,-335.30
65202,158.27
65216,162.11
65229,-289.43
65242,177.48
65256,150.66
65269,-324.66
65282,146.45
65295,152.82
65309,-313.41
65322,156.65
65336,167.44
65349,-312.15
65362,148.80
65376,166.28
65389,-312.01
65402,135.73
65416,197.64
65429,-344.36
65442,95.02
65456,231.27
65469,-255.79
65482,101.49
65496,124.39
65509,-320.12
65522,152.30
65536,210.11
65549,-308.92
65563,119.57
65575,181.97
65589,-318.30
65602,118.76
65616,192.36
65629,-315.02
65642,120.00
65656,207.67
65669,-311.34
65682,108.36
65696,200.07
65709,-315.27
65722,102.92
65736,207.20
65749,-306.93
65762,96.06
65776,250.02
65789,-320.79
65802,-8.81
65815,272.91
65829,-230.98
65842,88.43
65856,137.32
65869,-240.06
65882,20.51
65896,181.90
65909,-194.47
65922,-3.62
65936,258.49
65949,-204.43
65962,14.32
65976,161.77
65989,-300.05
66002,86.18
66015,260.73
66029,-288.58
66042,46.77
66056,228.37
66069,-295.83
66082,62.01
66095,246.12
66109,-296.21
66122,43.26
66136,240.58
66150,-290.02
66162,47.42
66175,249.44
66189,-287.35
66202,39.45
66215,249.81
66229,-291.38
66242,35.67
66256,255.00
66269,-289.25
66282,26.46
66295,263.41
66309,-282.76
66322,23.41
66336,263.47
66349,-287.76
66362,15.93
66376,266.52
66389,-284.96
66402,18.73
66415,280.79
66429,-287.09
66442,-4.22
66456,272.93
66469,-270.52
66482,0.40
66496,281.95
66509,-269.45
66522,-17.41
66535,269.05
66549,-252.40
66562,-12.50
66576,272.24
66589,-258.28
66602,-13.76
66615,269.73
66629,-260.81
66642,-22.68
66656,282.95
66669,-239.89
66682,-24.17
66696,268.31
66709,-261.39
66722,-34.08
66735,284.32
66749,-240.23
66762,-29.49
66776,285.85
66789,-246.02
66802,-47.88
66816,281.60
66829,-239.04
66842,-51.34
66856,288.80
66869,-228.82
66882,-53.91
66896,287.99
66909,-233.19
66922,-58.82
66935,289.23
66949,-230.60
66962,-62.34
66975,291.96
66989,-224.85
67002,-69.28
67015,294.82
67029,-219.24
67042,-79.34
67055,293.16
67069,-209.23
67082,-81.46
67095,289.48
67109,-210.35
67122,-84.92
67135,298.59
67149,-206.94
67162,-91.72
67175,294.63
67189,-201.98
67202,-94.20
67215,296.05
67229,-201.38
67242,-98.32
67256,303.89
67269,-196.53
67282,-110.61
67296,298.31
67309,-192.58
67322,-105.63
67336,306.32
67349,-191.33
67362,-118.34
67376,301.62
67389,-183.27
67402,-118.39
67415,300.01
67429,-177.83
67442,-123.91
67455,303.84
67469,-173.11
67482,-135.67
67496,302.60
67509,-168.31
67522,-133.19
67536,306.26
67549,-167.36
67562,-142.00
67575,304.15
67589,-159.55
67602,-125.33
67615,209.87
67629,-38.78
67642,-167.84
67656,315.99
67669,-179.17
67682,-255.95
67695,317.64
67709,-16.91
67722,-113.98
67736,255.34
67749,-201.00
67762,-219.61
67775,308.76
67789,-64.98
67802,-142.90
67815,292.39
67829,-131.81
67842,-200.22
67856,282.60
67869,-105.70
67882,-175.57
67895,295.37
67909,-105.67
67922,-185.51
67936,294.33
67949,-104.79
67962,-193.24
67976,289.80
67989,-97.17
68002,-195.70
68016,292.13
68029,-89.93
68042,-201.02
68056,288.46
68069,-88.67
68082,-200.13
68095,292.33
68109,-88.57
68122,-206.44
68135,292.64
68149,-88.59
68162,-208.08
68175,295.46
68189,-75.52
68202,-215.92
68215,286.21
68229,-72.26
68242,-220.23
68255,289.87
68269,-62.10
68282,-223.25
68295,285.26
68309,-64.86
68322,-224.69
68335,287.12
68349,-56.79
68362,-227.87
68375,283.46
68389,-55.32
68402,-230.94
68415,281.95
68429,-46.11
68442,-233.78
68455,281.07
68469,-49.12
68482,-235.58
68495,283.62
68509,-42.76
68522,-239.52
68535,280.41
68550,-40.97
68562,-243.21
68575,278.04
68588,-23.67
68602,-248.45
68615,267.63
68629,-22.40
68642,-252.66
68655,274.12
68669,-11.62
68682,-257.31
68695,266.56
68709,-14.92
68722,-255.36
68736,270.65
68749,-10.08
68762,-258.83
68775,265.97
68789,-4.88
68802,-261.35
68815,262.99
68829,-1.07
68842,-262.89
68855,264.25
68869,0.82
68882,-264.47
68895,263.10
68909,4.44
68922,-269.22
68935,256.45
68949,19.25
68962,-273.13
68975,236.85
68989,51.14
69002,-272.17
69015,217.86
69029,36.58
69042,-266.77
69055,239.65
69069,38.04
69082,-278.08
69095,240.62
69109,36.56
69122,-280.38
69135,243.97
69149,39.38
69162,-286.94
69176,241.89
69189,48.15
69202,-285.77
69215,238.13
69229,53.65
69242,-294.52
69256,232.24
69269,66.65
69282,-301.65
69295,227.96
69309,79.32
69322,-300.33
69335,222.34
69349,84.32
69362,-308.38
69375,210.14
69389,91.89
69402,-300.60
69415,214.42
69429,96.85
69442,-309.53
69455,208.38
69469,96.76
69482,-306.75
69496,207.16
69509,104.40
69522,-308.27
69535,197.14
69549,111.15
69562,-303.53
69575,191.71
69589,114.08
69602,-304.14
69615,183.48
69629,119.77
69642,-301.73
69655,180.80
69669,123.21
69682,-301.23
69695,176.25
69709,125.24
69722,-300.51
69736,169.11
69749,135.06
69762,-300.31
69775,161.23
69789,136.58
69802,-296.28
69815,160.80
69829,141.19
69842,-302.84
69855,154.57
69869,145.77
69882,-296.24
69895,152.42
69909,145.53
69922,-297.37
69935,146.34
69949,151.63
69962,-294.20
69975,137.14
69989,159.18
70002,-290.10
70015,128.40
70029,159.56
70042,-291.83
70055,131.17
70069,166.27
70082,-294.20
70095,124.71
70109,169.35
70122,-292.87
70135,117.75
70149,176.08
70162,-288.44
70175,108.97
70189,180.34
70202,-287.02
70215,104.97
70229,181.18
70242,-286.56
70255,103.55
70269,185.18
70282,-285.13
70295,97.27
70309,187.21
70322,-283.64
70335,91.17
70349,196.32
70362,-281.88
70375,79.87
70389,201.53
70402,-278.83
70415,75.19
70429,202.94
70442,-276.11
70455,72.94
70469,204.77
70482,-278.04
70495,67.48
70509,211.15
70522,-271.19
70535,58.93
70549,210.37
70562,-269.41
70575,52.99
70589,218.99
70602,-265.06
70615,43.88
70629,219.34
70642,-261.90
70655,37.22
70669,225.56
70682,-256.17
70695,30.93
70709,220.38
70722,-252.29
70735,27.98
70749,230.40
70762,-250.00
70775,12.64
70789,232.54
70802,-244.73
70815,13.47
70829,233.59
70842,-246.80
70855,10.77
70869,236.63
70882,-242.31
70895,3.63
70909,235.56
70922,-240.84
70935,1.85
70949,243.92
70962,-239.61
70975,-6.37
70989,243.36
71002,-238.33
71015,-7.79
71029,249.98
71042,-239.65
71055,-15.55
71069,254.45
71082,-232.39
71095,-22.58
71108,252.52
71122,-230.50
71135,-27.86
71149,260.94
71162,-222.65
71175,-40.09
71189,256.75
71202,-219.69
71215,-38.32
71229,262.73
71242,-219.21
71255,-46.27
71269,262.81
71282,-215.01
71295,-50.44
71309,264.68
71322,-210.21
71335,-57.76
71349,268.57
71362,-205.11
71375,-66.07
71389,266.13
71402,-198.54
71415,-68.41
71429,271.43
71442,-199.54
71455,-77.78
71469,272.26
71482,-191.27
71495,-80.25
71509,275.52
71522,-190.56
71535,-90.34
71549,273.77
71562,-181.12
71575,-93.60
71589,278.85
71602,-179.80
71615,-101.56
71629,276.97
71642,-175.41
71655,-103.83
71669,280.54
71682,-170.65
71695,-113.02
71709,282.46
71722,-167.59
71735,-117.90
71749,283.99
71762,-160.31
71775,-124.55
71789,282.52
71802,-158.47
71815,-125.28
71829,285.73
71842,-156.55
71855,-131.65
71869,286.31
71882,-154.32
71895,-134.68
71909,288.50
71922,-145.94
71935,-142.29
71948,284.16
71962,-141.83
71975,-149.01
71989,291.67
72002,-134.22
72015,-154.82
72029,285.77
72042,-132.30
72055,-158.93
72069,289.38
72082,-123.35
72095,-164.37
72109,287.74
72122,-122.23
72135,-170.85
72149,288.85
72162,-112.37
72175,-175.45
72189,288.89
72202,-113.19
72215,-178.74
72229,289.33
72242,-105.54
72255,-184.61
72269,289.45
72282,-102.50
72295,-191.09
72309,290.38
72322,-93.34
72335,-195.47
72348,286.59
72362,-87.67
72375,-203.11
72389,286.82
72402,-81.57
72415,-203.93
72429,289.11
72442,-82.22
72455,-211.54
72469,286.38
72482,-72.28
72495,-210.24
72509,286.36
72522,-72.56
72535,-222.27
72549,287.38
72562,-57.15
72575,-227.47
72589,285.03
72602,-59.85
72615,-227.00
72629,286.15
72642,-55.97
72655,-229.57
72669,282.49
72682,-49.90
72695,-233.28
72709,279.87
72722,-43.34
72735,-238.36
72749,279.51
72762,-36.12
72775,-241.20
72789,273.81
72802,-35.28
72815,-239.71
72829,278.49
72842,-34.62
72855,-248.60
72869,278.59
72882,-23.73
72895,-253.09
72909,273.20
72922,-17.85
72935,-257.92
72949,272.47
72962,-11.15
72975,-257.80
72988,270.62
73002,-19.39
73015,-251.02
73029,274.36
73042,-33.12
73055,-232.79
73069,273.68
73082,-35.09
73095,-241.59
73109,221.32
73122,33.01
73135,-212.94
73148,213.77
73162,-2.79
73175,-249.33
73189,222.27
73202,8.33
73215,-220.43
73229,258.69
73242,-14.32
73255,-255.22
73268,258.96
73282,-23.28
73295,-251.06
73309,276.01
73322,-10.24
73335,-258.50
73348,269.21
73362,8.43
73375,-288.02
73388,254.83
73402,25.78
73415,-272.81
73428,261.21
73442,27.12
73455,-288.81
73469,243.66
73482,40.09
73495,-286.54
73509,245.64
73522,49.73
73535,-289.56
73549,237.36
73562,52.98
73575,-287.20
73589,227.20
73602,55.00
73615,-279.17
73629,224.65
73642,56.39
73655,-276.67
73669,213.29
73682,65.69
73695,-273.41
73708,204.17
73722,66.82
73735,-273.28
73748,203.36
73762,76.34
73775,-274.03
73789,197.43
73802,71.16
73815,-274.23
73828,203.16
73842,77.87
73855,-277.71
73869,195.31
73882,81.44
73895,-274.01
73909,187.72
73922,88.68
73935,-274.68
73949,198.06
73962,35.77
73975,-191.28
73988,96.00
74002,174.82
74015,-249.85
74029,82.21
74042,35.87
74055,-208.20
74069,266.98
74082,125.65
74095,-330.79
74108,84.59
74122,90.90
74135,-225.54
74149,203.00
74162,129.40
74175,-279.63
74189,130.44
74202,97.12
74215,-266.37
74229,159.78
74242,121.74
74255,-262.40
74269,146.25
74282,121.52
74295,-266.60
74309,137.92
74322,124.79
74335,-264.79
74349,138.74
74362,128.59
74375,-264.55
74389,133.38
74402,130.40
74415,-261.60
74429,129.54
74442,134.85
74455,-261.59
74469,121.21
74482,141.03
74495,-259.87
74509,114.17
74522,146.33
74535,-257.28
74548,110.39
74562,145.86
74575,-253.83
74589,107.18
74602,146.24
74615,-253.77
74629,103.18
74642,153.44
74655,-251.65
74668,94.13
74682,157.49
74695,-250.14
74708,89.44
74722,163.80
74735,-252.77
74748,86.34
74762,164.73
74775,-246.85
74789,82.33
74802,164.25
74815,-246.61
74828,76.95
74842,172.16
74855,-243.83
74868,66.67
74882,176.80
74895,-237.81
74908,56.16
74922,182.24
74935,-236.27
74949,52.02
74962,181.80
74975,-233.62
74989,54.03
75002,182.64
75015,-235.37
75028,47.46
75042,188.22
75055,-233.28
75068,39.00
75082,196.59
75095,-230.08
75108,32.97
75122,193.48
75135,-226.59
75148,32.02
75162,197.70
75175,-225.92
75189,22.93
75202,199.98
75215,-221.46
75229,22.55
75242,203.02
75255,-224.87
75269,14.20
75282,211.89
75295,-220.28
75308,7.50
75322,210.90
75335,-221.76
75348,9.99
75362,215.27
75375,-221.20
75388,3.46
75402,216.46
75415,-218.69
75428,-1.13
75442,220.45
75455,-216.12
75468,-8.50
75482,225.35
75495,-211.32
75508,-16.54
75522,226.21
75535,-209.34
75548,-18.07
75562,226.94
75575,-206.18
75588,-23.07
75602,231.27
75615,-205.16
75628,-31.70
75642,236.28
75655,-199.21
75669,-42.26
75682,241.59
75695,-194.32
75708,-47.97
75722,238.54
75735,-190.17
75748,-49.87
75762,243.67
75775,-190.73
75788,-54.75
75802,240.63
75815,-187.26
75829,-53.61
75842,247.47
75855,-187.19
75868,-68.25
75882,249.58
75895,-179.07
75908,-70.48
75922,252.88
75935,-179.77
75948,-76.84
75962,256.07
75975,-176.11
75988,-82.10
76002,256.84
76015,-173.85
76028,-86.95
76042,264.05
76055,-169.73
76068,-98.91
76082,263.29
76095,-160.95
76109,-100.78
76122,259.75
76135,-159.66
76149,-101.69
76162,264.16
76175,-157.11
76189,-109.59
76202,262.37
76215,-153.12
76229,-113.31
76242,269.84
76255,-145.76
76269,-127.76
76282,266.38
76295,-137.52
76309,-130.21
76322,268.42
76335,-133.69
76349,-135.50
76362,266.13
76375,-119.79
76389,-162.47
76402,268.03
76415,-70.05
76429,-203.70
76442,296.42
76455,-144.46
76469,-136.69
76482,266.02
76495,-161.63
76508,-64.07
76522,309.36
76535,-219.52
76548,-174.50
76562,300.66
76575,-123.56
76588,-128.90
76602,304.19
76615,-136.75
76628,-187.41
76642,285.99
76655,-115.61
76669,-179.58
76682,298.86
76695,-101.79
76708,-188.47
76722,291.51
76735,-98.62
76748,-198.61
76762,287.48
76775,-86.30
76789,-205.08
76802,290.29
76815,-72.00
76829,-219.12
76842,281.82
76855,-64.91
76869,-212.28
76882,281.06
76895,-68.27
76909,-216.11
76922,284.94
76935,-66.87
76949,-222.66
76962,284.46
76975,-54.58
76988,-225.05
77002,272.58
77015,-45.72
77028,-209.30
77042,213.30
77055,5.60
77069,-185.70
77082,214.95
77095,-86.29
77108,-191.64
77122,313.09
77135,-75.81
77148,-213.45
77162,280.22
77175,-76.88
77189,-228.52
77202,280.45
77215,-45.53
77228,-224.86
77242,285.55
77255,-38.14
77269,-244.75
77282,268.00
77295,-44.37
77308,-226.18
77322,295.81
77335,-96.44
77348,-185.78
77362,288.82
77375,-115.70
77388,-196.19
77402,296.70
77415,1.61
77429,-248.22
77442,210.47
77455,-76.73
77469,-240.52
77482,333.48
77495,40.71
77509,-244.79
77522,222.18
77535,-62.36
77548,-268.68
77562,273.34
77575,17.78
77588,-224.71
77602,256.70
77615,-14.73
77629,-254.72
77642,238.94
77655,-6.30
77668,-214.45
77682,166.72
77695,63.42
77709,-159.49
77722,143.03
77735,-57.54
77748,-193.57
77762,273.64
77775,29.12
77789,-245.11
77802,187.15
77815,-10.63
77828,-229.94
77842,245.41
77855,27.53
77869,-240.04
77882,223.15
77895,7.34
77908,-249.72
77922,233.39
77935,14.86
77949,-252.02
77962,242.14
77975,21.51
77988,-264.58
78002,242.64
78015,23.51
78029,-272.62
78042,251.22
78055,20.67
78068,-274.25
78082,248.04
78095,34.63
78108,-270.00
78122,227.88
78135,32.23
78148,-259.89
78162,221.90
78175,44.06
78188,-253.41
78202,206.94
78215,44.44
78228,-254.37
78242,203.50
78255,51.56
78268,-252.40
78282,202.86
78295,51.60
78309,-253.73
78322,198.98
78335,54.34
78348,-249.55
78362,189.98
78375,59.55
78388,-245.75
78402,182.76
78415,64.54
78428,-245.41
78442,179.41
78455,66.46
78468,-246.37
78482,178.80
78495,68.19
78508,-244.73
78522,173.58
78535,71.22
78548,-242.25
78562,167.61
78575,77.84
78588,-243.62
78602,159.59
78615,84.79
78629,-240.53
78642,153.52
78655,89.58
78668,-243.54
78682,152.94
78695,90.70
78708,-272.24
78722,241.44
78735,63.99
78748,-376.62
78762,181.56
78775,188.10
78789,-117.31
78802,63.61
78815,-23.18
78829,-301.06
78842,145.36
78855,214.02
78869,-138.61
78882,124.35
78895,41.20
78908,-312.11
78922,100.02
78935,141.60
78948,-198.36
78962,146.61
78975,131.55
78988,-268.95
79002,148.95
79015,67.97
79028,-293.07
79042,180.33
79055,185.34
79069,-261.40
79082,67.00
79095,101.74
79109,-225.22
79122,144.41
79135,152.94
79149,-256.05
79162,92.32
79175,127.31
79189,-252.34
79202,98.27
79215,149.16
79228,-161.23
79242,32.26
79255,132.27
79269,-244.22
79282,78.95
79295,165.58
79308,-199.23
79322,94.80
79335,133.81
79349,-267.66
79362,57.57
79375,174.66
79388,-205.15
79402,75.89
79415,163.44
79428,-232.83
79442,44.07
79455,167.97
79469,-225.09
79482,55.70
79495,177.47
79508,-219.46
79522,43.77
79535,178.36
79548,-215.05
79562,20.95
79575,182.69
79588,-188.13
79602,0.79
79615,178.04
79628,-134.79
79642,-110.74
79655,237.27
79668,-65.50
79682,-59.20
79695,60.12
79708,-186.12
79722,90.15
79735,125.10
79748,-27.62
79762,-0.74
79775,137.27
79788,-236.07
79802,-229.97
79815,231.17
79828,55.52
79842,93.30
79855,182.33
79869,-292.13
79882,-147.85
79895,182.60
79908,-130.37
79922,36.62
79935,252.35
79948,-220.00
79962,63.44
79975,135.52
79989,-364.84
80002,79.41
80015,348.76
80028,-188.30
80042,-86.48
80055,126.43
80069,-215.52
80081,6.69
80095,300.14
80108,-81.78
80122,-134.69
80135,156.37
80149,-166.21
80162,-95.77
80175,261.08
80188,-90.87
80202,-83.23
80215,213.23
80228,-166.91
80242,-95.09
80255,241.20
80268,-145.65
80281,-77.66
80295,240.97
80308,-167.08
80322,-84.85
80335,251.04
80348,-157.59
80362,-92.33
80375,250.07
80388,-157.92
80402,-100.51
80415,254.68
80428,-149.26
80442,-103.66
80455,256.32
80468,-146.80
80482,-117.30
80495,255.75
80508,-124.91
80522,-138.18
80535,258.14
80548,-105.31
80562,-143.08
80575,199.29
80588,-38.39
80602,-129.83
80615,161.66
80628,-28.59
80642,-135.80
80655,158.46
80668,-90.19
80682,-65.35
80695,299.50
80708,-258.69
80722,-135.49
80735,332.33
80748,-86.24
80762,-158.85
80775,213.95
80788,-161.35
80802,-132.31
80815,321.34
80828,-86.11
80842,-163.04
80855,245.70
80868,-136.36
80881,-174.80
80895,285.52
80908,-88.01
80922,-165.12
80935,274.39
80948,-97.36
80962,-182.99
80975,237.18
80988,-34.27
81002,-183.29
81015,230.11
81028,-89.80
81042,-193.47
81055,333.52
81068,-118.26
81082,-156.65
81095,236.69
81109,-147.60
81122,-109.77
81135,332.11
81148,-142.84
81162,-239.68
81175,275.91
81188,-60.45
81202,-164.32
81215,298.26
81228,-94.58
81242,-234.23
81255,275.29
81268,-65.40
81282,-210.12
81295,290.80
81308,-58.47
81322,-223.63
81335,280.01
81348,-57.55
81362,-227.60
81375,278.14
81388,-54.63
81402,-225.11
81415,282.97
81428,-50.43
81442,-233.57
81455,287.51
81468,-72.45
81482,-178.52
81495,258.58
81508,-112.57
81522,-185.67
81535,214.42
81548,63.49
81562,-114.70
81575,167.15
81588,-198.36
81602,-282.85
81615,368.83
81628,106.33
81642,-188.51
81655,213.27
81669,-127.91
81682,-296.41
81695,287.31
81708,20.71
81722,-207.20
81735,281.28
81748,-35.07
81762,-261.09
81775,255.74
81788,-27.22
81802,-245.56
81815,272.39
81828,-15.74
81842,-244.80
81855,264.76
81868,-12.26
81882,-247.76
81895,255.75
81908,-14.15
81922,-250.69
81935,264.01
81948,-8.09
81962,-256.79
81975,267.79
81988,-7.48
82002,-263.77
82015,270.27
82028,-3.18
82042,-266.98
82055,265.20
82068,2.58
82082,-265.26
82095,261.34
82108,2.98
82122,-263.69
82135,259.37
82148,8.05
82162,-264.35
82175,251.50
82188,11.10
82202,-261.43
82215,248.25
82228,15.57
82242,-261.46
82255,243.47
82268,19.02
82282,-261.02
82295,237.22
82308,25.14
82322,-260.71
82335,236.98
82348,23.81
82362,-264.85
82375,239.21
82388,30.31
82402,-265.05
82415,228.76
82428,35.89
82442,-261.73
82455,223.65
82468,37.31
82482,-260.95
82495,222.11
82508,43.25
82522,-263.41
82535,220.63
82548,40.35
82562,-269.22
82575,227.26
82588,52.03
82602,-275.07
82615,222.50
82628,51.22
82642,-284.07
82655,227.33
82668,66.51
82682,-285.42
82695,221.71
82708,62.75
82722,-304.41
82735,245.22
82748,70.54
82762,-324.60
82775,259.14
82788,78.56
82802,-344.50
82815,256.10
82828,85.97
82842,-339.46
82855,256.02
82868,87.35
82882,-343.14
82895,253.47
82908,92.59
82921,-353.51
82935,263.51
82948,95.74
82962,-367.24
82975,266.42
82988,110.37
83002,-365.46
83015,247.07
83028,116.32
83042,-371.33
83055,249.44
83068,123.59
83082,-356.77
83095,237.16
83108,122.43
83121,-368.74
83135,229.29
83148,134.14
83162,-349.24
83175,225.27
83188,133.23
83201,-365.86
83215,223.98
83228,133.00
83242,-354.84
83255,212.38
83268,163.08
83282,-352.66
83295,184.56
83308,130.81
83322,-331.98
83335,221.07
83348,146.84
83361,-370.28
83375,192.47
83388,180.17
83402,-363.60
83415,183.88
83428,174.14
83441,-359.99
83455,195.46
83468,167.96
83482,-372.19
83495,194.86
83508,188.03
83521,-374.85
83535,180.16
83548,191.70
83562,-371.27
83575,173.02
83588,206.69
83602,-373.19
83615,164.60
83628,193.65
83642,-357.00
83656,173.08
83668,193.57
83682,-371.70
83695,161.31
83708,211.41
83722,-358.70
83735,148.85
83748,205.48
83762,-355.52
83775,144.66
83788,211.71
83801,-347.74
83815,131.61
83828,212.80
83842,-336.90
83855,118.55
83868,217.92
83882,-331.10
83895,106.10
83908,223.70
83922,-322.65
83935,99.95
83948,218.51
83962,-318.97
83975,98.95
83988,225.18
84002,-321.51
84015,85.84
84028,234.21
84042,-309.59
84055,75.49
84068,232.44
84082,-307.97
84095,67.65
84108,239.98
84122,-297.77
84135,56.32
84148,242.16
84162,-298.97
84175,50.53
84188,248.07
84201,-295.64
84215,47.54
84228,252.25
84241,-295.04
84255,33.75
84268,261.27
84282,-297.05
84295,39.05
84308,254.44
84322,-292.30
84335,41.57
84348,257.58
84362,-299.68
84375,32.63
84388,263.10
84402,-298.52
84415,39.01
84428,266.58
84442,-293.85
84455,17.90
84468,262.67
84482,-263.70
84495,-13.19
84508,268.75
84522,-227.67
84535,-47.27
84548,255.07
84562,-191.62
84575,-68.88
84588,254.82
84602,-162.37
84615,-100.58
84628,244.20
84642,-138.44
84655,-102.68
84668,242.75
84682,-133.18
84695,-117.13
84708,248.35
84722,-117.46
84735,-135.81
84748,241.60
84762,-106.65
84775,-130.18
84788,243.57
84802,-121.73
84815,-113.41
84828,238.31
84841,-138.32
84855,-102.72
84868,254.13
84882,-145.87
84895,-115.22
84908,252.97
84922,-141.33
84935,-110.25
84948,258.14
84962,-136.44
84975,-123.91
84988,252.76
85002,-131.84
85015,-127.08
85028,262.19
85041,-129.19
85055,-129.64
85068,258.47
85081,-132.38
85095,-132.85
85108,267.99
85122,-120.37
85135,-156.22
85148,260.34
85162,-84.64
85175,-178.05
85188,252.23
85201,-65.41
85215,-181.44
85228,238.90
85242,-66.01
85255,-171.41
85268,251.50
85281,-74.33
85295,-183.83
85308,247.55
85322,-64.50
85335,-175.79
85348,228.16
85362,-44.96
85375,-164.64
85388,204.60
85401,-53.40
85415,-161.12
85428,230.50
85442,-68.01
85455,-176.96
85468,260.08
85481,-83.88
85495,-174.11
85508,257.77
85521,-100.45
85535,-158.02
85548,270.80
85561,-101.11
85575,-174.40
85588,268.49
85601,-101.19
85615,-171.21
85628,276.56
85641,-91.75
85655,-181.80
85668,269.62
85681,-93.83
85695,-184.99
85708,279.79
85721,-84.83
85735,-196.02
85748,278.49
85762,-75.47
85775,-202.50
85788,268.71
85801,-65.73
85815,-202.30
85828,269.12
85841,-65.18
85855,-207.34
85868,274.02
85881,-60.09
85895,-214.99
85908,269.19
85921,-55.80
85935,-212.29
85948,267.36
85961,-51.59
85975,-214.62
85988,266.84
86002,-52.64
86015,-218.47
86028,270.10
86041,-49.14
86055,-219.52
86068,268.01
86081,-46.57
86095,-221.74
86108,264.44
86122,-42.78
86135,-219.86
86148,264.98
86161,-44.91
86175,-222.36
86188,262.50
