Time (ms),EMG Value
2003,4.32
2016,-4.51
2030,1.20
2043,5.01
2056,-5.13
2069,-1.22
2083,4.93
2096,-4.39
2110,0.01
2123,5.65
2136,-4.94
2150,-0.72
2163,5.24
2176,-5.40
2190,-1.12
2203,6.38
2217,-3.46
2230,-0.75
2243,3.50
2257,-4.87
2269,-0.57
2283,6.69
2297,-3.88
2310,-2.08
2323,4.74
2336,-3.74
2350,-1.34
2364,5.21
2376,-3.45
2390,-1.14
2403,5.07
2416,-3.97
2430,-1.65
2443,5.00
2456,-3.59
2470,-1.18
2483,5.20
2496,-3.71
2510,-1.44
2523,5.01
2536,-3.60
2550,-2.02
2563,5.77
2576,-3.16
2590,-2.56
2603,5.18
2616,-3.00
2630,-1.95
2643,5.48
2656,-3.27
2670,-2.40
2683,5.14
2696,-2.47
2710,-2.81
2723,4.90
2736,-1.94
2750,-2.33
2763,4.64
2776,-2.44
2790,-3.27
2803,5.75
2816,-2.23
2830,-2.95
2843,5.40
2856,-2.88
2870,-3.05
2883,5.76
2896,-1.76
2909,-3.78
2923,4.95
2936,-1.52
2950,-3.16
2963,5.04
2976,-1.93
2990,-3.44
3003,5.19
3016,-1.61
3030,-3.31
3043,5.05
3056,-1.82
3070,-3.41
3083,5.11
3096,-1.71
3109,-3.34
3123,4.96
3136,-1.10
3150,-4.04
3163,4.40
3176,-0.06
3189,-3.64
3203,3.68
3216,-0.68
3229,-3.06
3243,3.36
3256,0.07
3269,-3.07
3283,4.27
3296,-1.47
3310,-4.75
3323,5.41
3336,0.24
3350,-4.40
3363,4.63
3376,-0.38
3390,-5.24
3403,5.62
3416,-0.29
3430,-5.49
3443,5.72
3456,-0.02
3470,-5.59
3483,5.85
3497,0.11
3509,-6.18
3523,4.73
3536,1.55
3549,-5.34
3563,4.51
3576,0.79
3590,-6.08
3603,5.13
3616,0.55
3629,-5.80
3643,5.26
3656,1.66
3670,-6.08
3683,4.30
3696,0.52
3710,-5.94
3723,5.06
3736,2.06
3749,-5.85
3763,4.11
3776,1.61
3790,-6.57
3803,3.87
3816,1.82
3830,-5.25
3843,5.38
3856,1.71
3870,-8.16
3883,3.97
3896,3.27
3910,-6.00
3923,4.33
3936,2.16
3949,-7.82
3963,4.97
3976,3.27
3990,-7.79
4003,4.40
4016,3.11
4030,-7.45
4043,4.66
4056,2.96
4070,-7.77
4083,4.53
4096,3.26
4110,-8.20
4123,5.30
4136,3.58
4150,-8.86
4163,4.64
4176,3.75
4190,-8.21
4203,4.99
4216,3.20
4230,-7.36
4243,3.29
4256,2.76
4270,-4.90
4283,2.83
4296,1.43
4310,-5.51
4323,4.98
4336,2.96
4350,-8.34
4363,3.02
4376,3.88
4390,-6.82
4403,4.97
4416,3.94
4430,-9.40
4443,4.07
4456,4.46
4470,-8.56
4483,3.79
4497,5.80
4510,-10.02
4523,5.12
4536,5.70
4550,-10.54
4563,2.59
4576,5.96
4590,-7.57
4603,4.37
4616,4.47
4630,-9.47
4643,2.68
4656,5.16
4669,-7.27
4683,3.96
4696,4.52
4710,-8.74
4723,3.01
4736,5.31
4750,-8.17
4763,2.89
4776,4.94
4790,-6.44
4803,1.40
4816,3.78
4830,-5.84
4843,4.11
4856,3.56
4870,-9.98
4883,3.60
4896,7.11
4909,-8.79
4923,2.99
4936,5.61
4950,-9.69
4963,3.26
4976,6.41
4990,-9.20
5003,3.17
5016,6.22
5030,-10.05
5043,4.04
5056,5.95
5069,-9.21
5083,2.97
5096,6.06
5110,-10.63
5123,5.02
5136,7.46
5150,-11.08
5163,1.61
5176,7.42
5190,-8.71
5203,2.98
5216,6.51
5230,-9.45
5243,1.85
5256,6.65
5269,-8.27
5283,2.57
5296,6.09
5309,-8.64
5323,2.04
5336,5.40
5350,-6.19
5363,0.95
5376,4.31
5389,-5.97
5403,3.30
5416,5.15
5430,-9.52
5443,1.50
5456,6.18
5470,-7.29
5483,3.89
5496,6.40
5510,-10.96
5523,1.92
5536,10.95
5550,-24.32
5563,18.61
5576,17.31
5590,-24.62
5603,-10.86
5616,12.44
5629,3.80
5643,8.57
5656,2.24
5670,-18.76
5683,-2.13
5696,9.51
5709,-2.27
5723,2.78
5736,6.02
5750,-8.61
5763,0.90
5776,5.43
5790,-10.09
5803,1.57
5816,9.35
5830,-7.47
5843,0.92
5856,6.29
5870,-8.26
5883,1.27
5896,7.10
5910,-9.12
5923,1.06
5936,8.26
5950,-8.10
5963,0.79
5976,7.19
5990,-8.75
6003,1.00
6016,7.78
6030,-8.27
6043,0.25
6056,8.03
6069,-7.54
6083,-0.29
6096,6.51
6110,-7.12
6123,1.47
6136,7.50
6150,-9.36
6163,0.93
6176,8.98
6190,-12.56
6203,5.03
6216,8.91
6230,-9.47
6243,-4.82
6256,7.47
6270,-1.03
6283,2.55
6296,4.30
6310,-10.91
6323,-2.44
6336,8.84
6350,-3.61
6363,1.18
6376,7.37
6390,-11.10
6403,1.22
6416,8.18
6430,-8.31
6443,-2.52
6456,8.51
6470,-2.83
6483,-0.81
6496,5.08
6510,-6.80
6523,-2.20
6536,7.39
6550,-3.77
6563,-1.17
6576,5.65
6589,-5.07
6603,-1.33
6616,7.26
6630,-6.00
6643,-2.44
6656,7.20
6670,-3.77
6683,-1.52
6696,5.75
6709,-5.48
6723,-1.58
6736,6.97
6749,-4.36
6763,-2.32
6776,6.93
6790,-4.49
6803,-2.86
6816,6.66
6830,-4.06
6843,-2.19
6856,6.88
6870,-4.42
6883,-2.68
6896,6.69
6910,-4.25
6923,-2.56
6936,7.33
6949,-4.31
6963,-3.72
6976,7.42
6989,-3.04
7003,-3.93
7016,7.48
7030,-4.22
7043,-3.87
7056,7.98
7069,-3.97
7083,-3.79
7096,8.06
7109,-3.84
7123,-4.67
7136,8.27
7150,-3.08
7163,-5.09
7176,6.91
7190,-2.40
7203,-3.99
7216,8.17
7230,-3.37
7243,-5.34
7256,6.68
7269,-2.52
7283,-3.86
7296,8.30
7310,-2.36
7323,-6.68
7336,6.64
7350,-1.11
7363,-4.56
7376,7.23
7390,-2.16
7403,-5.57
7416,6.39
7430,-0.75
7443,-5.26
7456,6.61
7469,-1.20
7483,-6.05
7496,7.22
7510,-1.17
7523,-6.46
7536,7.72
7550,0.03
7563,-7.13
7576,5.99
7590,-0.43
7603,-5.86
7616,7.41
7630,-0.29
7643,-6.83
7656,6.30
7669,0.19
7683,-7.03
7696,6.46
7709,0.95
7723,-6.71
7736,6.71
7750,-0.34
7763,-7.92
7776,7.60
7790,1.80
7803,-8.05
7816,5.69
7830,0.82
7843,-7.13
7856,7.11
7869,1.32
7883,-8.56
7896,6.75
7909,2.14
7923,-9.38
7936,6.26
7949,3.05
7963,-8.28
7976,6.20
7989,2.04
8003,-9.06
8016,6.31
8029,2.69
8043,-8.58
8056,6.31
8069,2.55
8083,-9.48
8096,6.92
8109,3.01
8123,-9.93
8136,6.38
8149,3.34
8163,-9.97
8176,7.35
8189,3.46
8203,-10.98
8216,6.43
8229,4.42
8243,-10.77
8256,6.49
8269,4.84
8283,-11.38
8296,6.73
8309,4.73
8323,-11.98
8336,6.56
8350,5.49
8363,-11.90
8376,7.31
8389,5.18
8403,-12.38
8416,5.92
8429,5.40
8443,-11.50
8456,7.65
8469,5.44
8483,-13.92
8496,6.98
8510,7.02
8523,-13.64
8536,6.19
8550,7.52
8563,-12.82
8576,6.27
8589,6.68
8603,-15.00
8616,7.06
8629,8.27
8643,-13.63
8656,6.27
8669,7.83
8683,-15.10
8696,6.22
8709,8.57
8723,-15.21
8736,7.28
8749,8.98
8763,-15.27
8776,5.56
8790,8.48
8803,-14.85
8816,7.38
8829,8.80
8843,-16.27
8856,6.27
8870,9.52
8883,-16.38
8896,8.19
8909,10.01
8923,-18.90
8936,7.33
8950,11.08
8963,-18.46
8976,8.29
8990,11.27
9003,-20.06
9016,8.18
9030,12.12
9043,-21.21
9056,9.37
9070,12.91
9083,-21.93
9096,7.65
9110,13.44
9123,-19.27
9136,6.14
9150,12.35
9163,-19.38
9176,7.25
9190,12.98
9203,-19.23
9216,5.54
9230,12.07
9243,-17.49
9256,6.21
9269,11.77
9283,-17.87
9296,6.02
9310,11.47
9323,-17.33
9336,5.43
9350,11.21
9363,-15.89
9376,5.36
9390,10.47
9403,-16.16
9416,5.56
9430,10.46
9444,-15.59
9456,4.83
9469,10.35
9483,-15.51
9496,6.12
9509,10.58
9523,-17.34
9536,5.19
9550,13.20
9563,-20.86
9576,9.33
9589,13.50
9603,-18.25
9616,-0.93
9630,10.05
9643,-4.28
9656,2.63
9669,7.62
9683,-28.26
9696,21.85
9709,32.22
9723,-86.42
9736,52.97
9750,51.29
9763,-63.35
9776,-29.31
9789,29.10
9803,21.66
9816,16.94
9830,-7.68
9843,-36.45
9856,-7.59
9869,17.37
9883,5.39
9896,10.68
9909,4.95
9923,-18.06
9936,-1.10
9949,8.59
9963,-15.21
9976,9.57
9989,14.79
10003,-24.27
10016,8.47
10030,15.53
10043,-16.35
10056,-4.30
10070,9.90
10083,-3.56
10096,4.56
10109,4.47
10123,-14.62
10136,0.74
10149,9.71
10163,-4.96
10176,1.32
10189,5.83
10202,-9.12
10216,2.11
10229,6.76
10243,-10.90
10256,2.21
10269,8.98
10283,-9.71
10296,2.97
10309,8.08
10323,-11.44
10336,1.20
10349,9.15
10363,-9.91
10376,1.41
10389,8.55
10403,-10.15
10416,1.73
10430,8.99
10443,-10.80
10456,1.36
10469,9.66
10483,-10.40
10496,0.13
10509,8.27
10523,-5.25
10536,-3.40
10549,5.47
10563,-3.16
10576,2.59
10589,5.05
10603,-9.76
10616,-1.83
10630,8.53
10643,-5.36
10656,1.85
10669,7.38
10683,-9.54
10696,-1.73
10709,8.81
10723,-7.31
10736,0.12
10749,8.58
10763,-8.66
10776,-0.58
10789,9.11
10803,-8.70
10816,0.15
10829,9.06
10843,-9.62
10856,-0.25
10869,8.75
10883,-7.24
10896,-0.96
10909,8.61
10923,-7.53
10936,-2.11
10949,8.77
10963,-6.23
10976,-1.45
10989,7.96
11003,-6.61
11016,-2.37
11029,8.17
11043,-5.39
11056,-1.64
11069,7.50
11083,-5.61
11096,-3.41
11109,8.16
11123,-4.19
11136,-2.43
11149,6.59
11163,-5.33
11176,-1.75
11189,7.59
11203,-4.41
11216,-3.87
11229,7.27
11243,-3.34
11256,-3.29
11269,6.85
11283,-3.87
11296,-3.26
11309,7.23
11323,-3.69
11336,-3.42
11349,6.67
11363,-2.78
11376,-3.37
11390,11.04
11403,-27.08
11416,19.76
11430,35.98
11443,-57.42
11456,3.59
11470,29.07
11483,-7.03
11496,-17.32
11509,10.11
11523,11.54
11536,0.60
11549,-3.85
11563,-15.80
11576,-6.90
11590,15.54
11603,7.50
11616,-1.44
11629,2.46
11643,-7.56
11656,-6.75
11670,6.99
11683,-0.45
11696,-3.98
11709,7.06
11723,-0.06
11736,-4.78
11749,4.84
11763,-1.78
11776,-5.39
11789,6.34
11803,-0.61
11816,-5.05
11829,6.60
11843,-1.38
11856,-5.95
11870,6.77
11883,-0.25
11896,-6.05
11909,6.96
11923,-0.81
11936,-7.07
11949,6.69
11963,0.04
11976,-5.98
11989,7.01
12003,-0.35
12016,-7.24
12029,6.69
12043,0.86
12056,-7.06
12069,5.79
12083,0.64
12096,-6.98
12109,7.16
12123,1.36
12136,-7.80
12149,4.69
12163,0.95
12176,-4.82
12190,5.08
12203,0.87
12216,-6.12
12229,4.33
12243,1.45
12256,-6.64
12269,5.51
12282,2.38
12296,-7.44
12309,4.76
12323,2.03
12336,-7.92
12349,6.20
12363,3.20
12376,-9.22
12389,5.62
12403,3.19
12416,-9.16
12429,5.77
12443,3.69
12456,-9.50
12469,6.40
12482,3.71
12496,-10.40
12509,5.76
12523,4.08
12536,-9.54
12549,6.02
12562,4.42
12576,-10.76
12589,5.37
12603,5.11
12616,-9.90
12629,5.36
12643,4.62
12656,-10.96
12669,6.21
12683,5.43
12696,-11.15
12709,4.86
12723,6.35
12736,-11.72
12749,6.48
12763,4.94
12776,-8.44
12789,0.52
12802,3.55
12816,-5.08
12829,8.09
12843,3.96
12856,-15.25
12869,3.99
12883,7.42
12896,-10.88
12909,8.03
12923,7.61
12936,-13.57
12949,2.69
12963,6.78
12976,-11.51
12989,6.07
13003,8.44
13016,-15.42
13030,7.47
13043,8.65
13056,-14.50
13069,3.60
13082,8.04
13096,-11.91
13109,6.42
13123,7.98
13136,-14.39
13149,4.21
13162,8.32
13176,-11.45
13189,3.34
13202,7.50
13216,-10.64
13229,5.82
13243,6.43
13256,-14.95
13269,5.20
13283,9.41
13296,-13.00
13309,5.99
13322,8.18
13336,-15.00
13349,4.94
13363,9.52
13376,-14.42
13389,5.35
13403,9.20
13416,-13.58
13429,4.42
13443,9.52
13456,-15.22
13469,4.72
13483,11.10
13496,-15.22
13509,4.81
13523,10.79
13536,-16.66
13549,5.22
13563,11.72
13576,-16.50
13589,4.84
13603,11.67
13616,-16.99
13629,5.66
13643,11.96
13656,-17.74
13669,5.01
13683,12.25
13696,-16.96
13709,5.38
13723,11.94
13736,-17.49
13749,5.14
13763,12.09
13776,-17.21
13789,5.30
13803,11.91
13816,-16.52
13829,3.90
13843,12.49
13856,-16.85
13869,5.30
13883,12.51
13896,-18.41
13909,4.44
13923,13.42
13936,-16.97
13949,4.81
13963,13.03
13976,-19.91
13989,6.57
14003,14.79
14016,-21.64
14029,5.73
14043,13.25
14056,-11.06
14069,-3.72
14083,7.05
14096,-4.92
14109,4.95
14123,6.75
14136,-11.35
14149,-4.44
14163,7.39
14176,-3.36
14189,6.37
14203,7.19
14216,-15.66
14229,-1.22
14243,11.38
14256,-9.40
14269,3.35
14283,10.25
14296,-13.72
14309,0.63
14323,10.56
14336,-10.29
14349,0.54
14363,9.39
14376,-9.41
14389,0.55
14403,8.92
14416,-10.41
14429,1.38
14443,9.30
14456,-9.39
14469,-1.24
14483,9.48
14496,-7.94
14509,0.35
14523,8.79
14536,-10.70
14549,0.25
14563,10.36
14576,-9.69
14589,0.06
14603,9.74
14616,-10.01
14629,0.07
14643,9.50
14656,-8.71
14669,-1.24
14683,8.69
14696,-6.85
14709,-0.73
14723,7.74
14736,-6.84
14749,-2.13
14763,8.53
14781,-6.24
14789,-1.33
14802,7.97
14816,-6.67
14829,-2.36
14842,8.25
14856,-5.34
14869,-1.70
14882,7.55
14896,-6.30
14909,-2.70
14923,8.78
14936,-5.18
14949,-2.99
14963,7.79
14976,-4.76
14989,-3.25
15003,7.91
15016,-4.96
15029,-2.31
15043,7.97
15056,-5.85
15069,-3.64
15083,9.17
15096,-4.45
15109,-3.80
15122,7.95
15136,-4.35
15149,-4.15
15162,8.26
15176,-4.15
15189,-3.60
15203,10.60
15216,-14.09
15229,6.06
15243,12.55
15256,-10.44
15269,-13.04
15283,7.96
15296,7.56
15309,2.91
15323,2.65
15336,-11.38
15349,-8.57
15363,9.22
15376,3.42
15389,-1.67
15403,6.78
15416,-4.68
15429,-7.83
15442,6.68
15456,-0.63
15469,-4.13
15483,7.19
15496,-0.89
15509,-6.43
15523,5.34
15536,-0.32
15549,-4.17
15563,6.82
15576,-1.89
15589,-7.39
15602,7.39
15616,0.04
15629,-6.01
15643,7.89
15656,-1.34
15669,-7.78
15683,7.43
15696,0.45
15709,-7.30
15723,7.18
15736,0.49
15749,-7.97
15763,7.61
15776,0.57
15789,-8.53
15803,7.34
15816,1.22
15829,-8.51
15843,8.12
15856,1.11
15869,-9.59
15882,7.27
15896,2.20
15909,-9.31
15923,7.33
15936,2.42
15949,-9.32
15963,6.87
15976,2.08
15989,-9.99
16002,7.98
16016,3.06
16029,-11.10
16043,7.83
16056,3.33
16069,-11.15
16083,7.62
16096,3.37
16109,-10.88
16123,7.76
16136,3.39
16149,-11.75
16163,8.36
16176,4.19
16189,-13.29
16203,17.65
16216,-32.73
16229,28.09
16243,27.63
16256,-28.42
16270,-44.12
16283,15.70
16296,41.98
16309,9.47
16323,-10.39
16336,-24.02
16349,-22.00
16363,17.60
16376,20.73
16389,-5.90
16403,4.84
16416,-0.88
16429,-17.46
16443,7.06
16456,8.22
16469,-13.20
16482,6.84
16496,7.30
16509,-10.74
16523,4.84
16536,5.01
16549,-11.38
16563,6.56
16576,5.64
16589,-14.19
16603,7.04
16616,8.34
16629,-16.59
16643,10.00
16656,9.56
16669,-18.90
16690,6.24
16696,9.84
16709,-16.13
16722,9.19
16736,9.24
16749,-19.11
16762,7.47
16776,10.22
16789,-17.05
16803,8.28
16816,10.39
16829,-19.55
16843,7.95
16856,11.50
16869,-19.00
16883,7.57
16896,11.28
16909,-19.46
16923,8.65
16936,11.91
16949,-20.94
16963,8.43
16976,12.54
16989,-21.36
17003,9.01
17016,12.92
17029,-21.77
17042,8.48
17056,13.09
17069,-22.00
17083,9.41
17096,13.33
17109,-22.69
17123,8.06
17136,14.44
17149,-22.15
17162,8.57
17176,14.09
17189,-23.71
17202,9.04
17216,15.26
17229,-24.26
17242,9.00
17256,16.14
17269,-25.92
17283,9.00
17296,17.41
17309,-26.12
17323,9.09
17336,17.29
17349,-27.31
17362,9.63
17376,18.15
17389,-27.32
17403,9.11
17416,18.23
17429,-28.39
17443,10.69
17456,18.80
17469,-29.06
17482,8.75
17496,19.16
17509,-28.39
17523,11.37
17536,19.03
17549,-30.47
17562,8.78
17576,19.71
17589,-28.16
17603,10.51
17616,20.18
17629,-31.62
17643,9.72
17656,21.38
17669,-32.11
17683,11.43
17696,24.55
17709,-42.17
17723,19.36
17736,24.52
17749,-28.13
17763,-9.20
17776,13.81
17789,-3.12
17803,14.16
17816,31.69
17829,-130.20
17843,125.66
17856,8.10
17869,-78.22
17883,36.15
17896,13.93
17909,-89.31
17923,48.48
17936,97.84
17949,-34.80
17963,-30.18
17976,-21.83
17989,-58.75
18003,42.70
18016,66.28
18029,-22.61
18043,-0.32
18056,8.23
18069,-48.51
18082,10.33
18096,28.94
18109,-33.09
18123,15.61
18136,25.86
18149,-28.93
18162,0.72
18176,19.92
18189,-27.54
18202,14.27
18216,21.54
18229,-43.17
18242,10.31
18256,30.99
18269,-36.32
18283,14.60
18296,27.98
18309,-45.30
18322,11.20
18336,30.07
18349,-41.93
18363,13.16
18376,30.68
18389,-42.88
18403,13.20
18416,30.13
18429,-43.41
18443,11.75
18456,30.16
18469,-41.69
18483,12.28
18496,31.11
18509,-44.98
18523,13.87
18536,32.24
18549,-45.76
18563,11.72
18576,32.93
18589,-44.61
18603,14.29
18616,32.39
18630,-47.81
18643,12.44
18656,33.75
18669,-45.16
18682,13.61
18696,32.97
18709,-47.28
18723,12.83
18736,34.64
18749,-47.99
18763,13.53
18776,35.18
18789,-49.16
18803,13.76
18816,35.87
18829,-49.17
18843,13.20
18856,35.83
18869,-50.30
18883,14.88
18896,36.73
18909,-51.49
18923,13.60
18936,37.06
18949,-50.05
18962,13.44
18976,38.30
18990,-53.21
19002,14.29
19016,38.93
19029,-52.26
19043,12.98
19056,37.82
19069,-49.92
19083,12.96
19096,37.11
19109,-50.73
19123,13.69
19136,37.81
19149,-51.53
19162,11.60
19176,38.73
19189,-48.21
19203,11.99
19216,37.05
19229,-52.41
19243,13.54
19256,39.84
19269,-51.70
19283,12.72
19296,38.19
19309,-49.81
19322,8.94
19336,38.72
19349,-45.54
19362,10.81
19376,35.02
19389,-47.88
19403,10.06
19416,36.29
19429,-44.14
19442,9.81
19456,34.76
19469,-45.44
19483,10.64
19496,34.73
19509,-45.05
19523,8.79
19536,34.79
19549,-42.54
19562,9.68
19576,34.24
19589,-43.73
19602,7.44
19616,34.38
19629,-42.88
19643,10.53
19656,35.79
19669,-46.71
19682,7.99
19696,37.48
19709,-44.85
19722,9.50
19736,35.58
19749,-42.95
19762,4.05
19776,33.17
19789,-34.53
19803,7.47
19816,31.37
19829,-46.44
19843,11.49
19856,38.89
19869,-49.68
19883,8.79
19896,39.74
19909,-45.34
19922,6.14
19936,41.77
19949,-55.89
19962,17.61
19976,33.80
19989,-19.16
20003,-35.17
20016,18.75
20029,-9.00
20043,46.48
20056,55.04
20069,-177.16
20083,66.05
20096,109.13
20109,-102.45
20123,-36.33
20136,66.90
20149,-0.68
20163,25.70
20176,13.54
20189,-88.31
20203,-8.56
20216,54.79
20229,-9.61
20243,10.03
20256,24.04
20269,-29.50
20283,-14.16
20296,20.24
20309,-24.08
20323,9.21
20336,31.45
20349,-32.60
20362,-4.84
20376,27.33
20389,-12.38
20403,-9.36
20416,20.45
20429,-19.96
20442,1.79
20456,25.41
20469,-34.16
20482,-1.51
20496,37.48
20509,-28.91
20523,-0.06
20536,32.55
20549,-36.15
20562,-5.29
20576,36.50
20589,-30.95
20602,0.24
20616,35.10
20629,-32.61
20643,-7.93
20656,35.10
20669,-23.94
20682,-7.33
20696,31.93
20709,-27.48
20722,-6.34
20736,34.97
20749,-27.55
20762,-8.49
20776,36.22
20789,-26.30
20802,-9.34
20816,33.79
20829,-22.50
20842,-12.92
20856,30.79
20869,-11.76
20882,-17.02
20896,24.86
20909,-9.28
20923,-14.81
20936,27.13
20949,-13.19
20963,-15.30
20976,30.47
20989,-17.16
21003,-15.75
21016,34.54
21029,-16.00
21042,-19.24
21056,33.80
21069,-10.61
21082,-24.85
21096,30.04
21109,-5.87
21123,-20.43
21136,30.71
21149,-8.68
21163,-26.92
21176,30.34
21189,-1.82
21203,-25.75
21216,31.34
21229,-8.86
21242,-22.95
21256,32.02
21269,-0.56
21282,-36.50
21296,26.41
21309,-9.30
21322,4.73
21336,34.31
21349,-14.53
21362,-62.32
21376,19.29
21389,22.90
21403,18.46
21416,44.62
21429,-46.23
21442,-86.52
21456,38.78
21469,56.65
21482,-16.47
21496,19.00
21509,0.42
21522,-63.05
21536,18.64
21549,35.27
21562,-34.47
21576,18.49
21589,22.89
21602,-32.92
21616,0.57
21629,16.71
21642,-21.95
21656,17.21
21669,16.15
21683,-40.66
21696,13.33
21709,25.91
21722,-34.82
21736,15.77
21749,25.63
21762,-49.00
21776,20.37
21789,31.46
21803,-52.91
21816,16.63
21829,34.41
21842,-47.01
21856,18.47
21869,31.68
21882,-55.69
21896,20.86
21909,36.43
21923,-58.63
21936,26.59
21949,21.45
21962,-57.29
21976,69.04
21989,-7.95
22003,-70.99
22016,46.34
22029,40.17
22042,-81.04
22056,26.14
22069,62.55
22082,-57.23
22096,11.08
22109,23.16
22123,-73.43
22136,31.88
22149,58.77
22163,-59.24
22176,20.10
22189,36.80
22203,-75.00
22216,21.82
22229,47.62
22242,-60.76
22256,20.05
22269,38.30
22282,-48.81
22296,9.83
22309,31.77
22323,-49.41
22336,25.35
22349,35.98
22362,-66.63
22376,18.55
22389,43.26
22402,-57.88
22416,23.90
22429,44.87
22442,-81.91
22456,34.76
22469,55.14
22482,-91.38
22496,25.08
22509,59.85
22523,-75.78
22536,27.42
22549,51.29
22562,-83.73
22576,26.02
22589,54.58
22602,-80.89
22616,28.35
22629,56.20
22643,-84.02
22656,27.81
22669,55.92
22682,-83.75
22696,26.42
22709,57.04
22723,-84.79
22736,28.06
22749,58.35
22762,-84.81
22776,25.80
22789,58.01
22802,-86.16
22816,29.86
22829,59.56
22843,-90.12
22856,27.55
22869,61.30
22882,-88.70
22896,29.94
22909,61.79
22922,-94.47
22936,30.78
22949,65.97
22962,-98.76
22976,32.45
22989,68.25
23003,-100.51
23016,31.20
23029,68.69
23043,-98.71
23056,30.71
23069,67.49
23082,-98.94
23096,31.27
23109,68.20
23123,-100.30
23136,32.45
23149,69.62
23162,-103.69
23176,33.33
23189,72.91
23202,-108.33
23216,35.07
23229,75.05
23242,-110.39
23256,33.80
23269,77.74
23283,-115.87
23296,41.51
23309,81.17
23323,-124.40
23336,36.07
23349,84.94
23362,-117.96
23376,37.54
23389,82.31
23403,-120.01
23416,35.11
23429,94.13
23443,-166.65
23456,87.29
23469,112.51
23483,-161.81
23495,-8.54
23509,96.45
23522,-74.69
23536,63.14
23549,67.19
23562,-159.95
23576,22.69
23589,99.11
23603,-105.99
23616,48.26
23629,85.30
23643,-133.66
23656,32.56
23669,86.33
23683,-127.73
23696,42.46
23709,93.87
23722,-132.62
23736,39.89
23749,95.05
23762,-142.05
23776,48.05
23789,101.44
23803,-149.52
23816,39.70
23829,102.50
23842,-138.87
23856,44.62
23869,97.21
23882,-137.31
23896,33.34
23909,91.31
23923,-118.12
23936,32.45
23949,82.98
23962,-113.48
23976,31.69
23989,79.72
24003,-112.38
24016,31.62
24029,80.89
24043,-111.31
24056,31.40
24069,81.12
24082,-116.91
24096,36.35
24109,85.32
24123,-120.81
24136,30.93
24149,85.29
24162,-113.05
24176,31.52
24189,82.16
24203,-114.51
24216,31.16
24229,81.81
24243,-109.48
24256,25.79
24269,68.26
24282,-60.49
24296,-13.32
24309,45.49
24322,-58.57
24336,55.71
24349,52.65
24362,-106.60
24376,-13.40
24389,69.59
24403,-49.54
24416,50.07
24429,61.39
24443,-139.70
24456,21.94
24469,93.77
24482,-111.93
24496,40.21
24509,95.12
24523,-131.92
24536,29.85
24549,94.55
24562,-131.82
24576,33.71
24589,101.85
24603,-132.55
24616,33.10
24629,100.24
24643,-132.48
24656,30.96
24669,99.26
24683,-128.66
24696,28.45
24709,98.65
24723,-127.38
24736,30.35
24749,100.00
24762,-130.34
24776,27.30
24789,100.89
24803,-126.36
24816,26.98
24829,97.50
24843,-119.46
24856,20.23
24869,91.70
24882,-107.52
24896,18.96
24909,87.43
24923,-107.94
24936,20.49
24949,90.00
24963,-112.12
24976,19.03
24989,105.44
25003,-155.18
25016,59.43
25029,126.47
25043,-155.62
25056,-18.65
25069,85.42
25082,17.45
25096,-53.29
25109,11.22
25122,-46.07
25136,81.41
25149,71.41
25162,-136.54
25176,-67.44
25189,87.80
25203,2.31
25216,60.67
25229,61.47
25243,-159.13
25256,-36.32
25269,128.65
25282,-90.51
25295,31.94
25309,81.21
25323,-34.36
25336,-89.40
25349,5.65
25362,71.08
25376,24.64
25389,-1.70
25402,-75.80
25416,-22.53
25429,68.74
25442,-28.55
25456,8.28
25469,71.53
25482,-77.46
25496,-21.50
25509,75.84
25522,-70.69
25536,-10.27
25549,92.41
25562,-68.58
25576,-17.54
25589,88.84
25603,-73.55
25616,-20.38
25629,90.93
25642,-71.28
25656,-23.51
25669,96.64
25682,-72.73
25696,-20.16
25709,96.71
25722,-73.94
25736,-31.00
25749,97.05
25762,-58.72
25776,-31.83
25789,87.72
25802,-55.59
25815,-36.59
25829,89.37
25842,-47.76
25856,-38.44
25869,82.00
25882,-39.54
25896,-44.88
25909,78.46
25922,-31.42
25936,-42.56
25949,78.36
25962,-35.25
25976,-51.88
25989,82.04
26003,-26.38
26016,-50.96
26029,80.19
26042,-29.10
26056,-55.01
26069,87.19
26082,-41.00
26096,-49.53
26109,105.92
26122,-49.69
26136,-64.94
26149,86.94
26162,7.37
26176,-85.87
26189,53.45
26202,15.25
26216,-41.58
26229,69.92
26242,-29.15
26256,-95.66
26269,83.08
26282,29.00
26296,-67.42
26309,67.33
26322,-2.49
26336,-89.80
26349,70.23
26363,16.62
26376,-81.85
26389,73.57
26403,18.82
26416,-90.87
26429,67.12
26442,22.88
26456,-93.85
26469,68.59
26482,29.83
26496,-98.10
26509,64.30
26522,35.91
26536,-99.95
26549,59.65
26562,54.22
26576,-112.24
26589,42.05
26603,60.08
26616,-104.15
26629,136.22
26642,-186.15
26656,48.00
26669,315.73
26682,-244.53
26696,-265.86
26709,187.46
26723,171.59
26736,-69.61
26749,43.18
26763,-23.93
26776,-177.77
26789,66.45
26802,91.19
26816,-95.34
26829,82.83
26842,77.35
26856,-147.57
26869,28.57
26882,77.81
26896,-130.09
26909,46.64
26922,93.94
26936,-126.74
26949,47.54
26962,87.78
26976,-141.63
26989,48.06
27003,92.37
27016,-140.43
27029,42.94
27043,93.45
27056,-133.70
27069,43.55
27082,97.22
27096,-157.58
27109,75.17
27122,86.00
27136,-158.28
27149,64.55
27163,87.48
27176,-156.34
27189,75.56
27202,24.70
27216,-43.99
27229,84.77
27242,2.75
27256,-196.24
27269,47.68
27282,170.06
27296,-69.84
27309,25.28
27322,25.40
27336,-192.62
27349,64.20
27362,146.83
27376,-130.05
27389,51.47
27402,92.08
27416,-178.52
27429,46.33
27443,115.99
27456,-159.15
27469,56.61
27482,115.13
27496,-167.81
27509,51.61
27522,115.07
27536,-172.09
27549,55.87
27562,119.39
27576,-176.65
27589,54.03
27602,123.58
27616,-181.72
27629,64.87
27642,123.72
27656,-199.14
27669,78.06
27682,133.80
27696,-212.56
27709,52.15
27722,145.31
27736,-174.14
27749,60.41
27762,116.99
27776,-213.28
27789,89.99
27803,126.15
27816,-155.81
27829,-20.25
27842,89.75
27856,-21.20
27869,27.09
27882,34.22
27896,-154.78
27909,66.15
27923,118.91
27936,-176.17
27949,56.19
27962,134.30
27976,-185.46
27989,62.41
28002,133.01
28016,-216.71
28029,61.95
28042,152.67
28056,-210.57
28069,67.43
28082,154.74
28096,-221.59
28109,63.98
28122,156.42
28135,-222.78
28149,60.85
28162,158.30
28176,-216.14
28189,62.37
28202,155.04
28216,-214.37
28229,56.94
28242,152.91
28256,-208.80
28269,57.98
28282,151.46
28296,-212.77
28309,60.27
28322,159.17
28336,-224.31
28349,62.85
28362,166.50
28376,-222.62
28389,50.66
28403,161.88
28416,-222.18
28429,73.94
28443,165.50
28456,-223.39
28469,31.26
28483,156.60
28496,-186.57
28509,65.45
28523,148.67
28536,-223.04
28549,45.53
28562,164.60
28576,-209.50
28589,59.58
28602,166.46
28615,-227.81
28629,50.54
28642,170.79
28656,-217.63
28669,48.13
28682,167.16
28696,-211.21
28709,45.25
28722,165.05
28736,-212.25
28749,46.41
28762,168.64
28776,-215.71
28789,44.63
28802,171.26
28816,-213.74
28829,41.63
28842,172.23
28856,-212.57
28869,39.44
28882,173.47
28896,-214.13
28909,38.78
28922,178.64
28936,-217.97
28949,37.11
28963,187.68
28976,-234.62
28989,47.12
29002,194.88
29016,-225.63
29029,17.36
29042,151.07
29055,-89.93
29069,-49.44
29082,75.72
29096,-80.46
29109,79.97
29122,116.01
29136,-231.65
29149,-3.21
29162,182.29
29176,-151.97
29189,45.71
29203,168.74
29216,-222.40
29229,2.61
29242,183.49
29256,-195.12
29269,22.52
29282,194.85
29296,-206.87
29309,13.35
29322,193.12
29336,-210.22
29349,7.19
29362,198.87
29376,-202.57
29389,6.43
29403,198.97
29416,-205.46
29429,2.74
29442,204.49
29456,-202.02
29469,-4.75
29482,201.11
29496,-196.00
29509,-4.09
29523,202.48
29536,-194.15
29549,-12.01
29563,201.46
29576,-187.19
29589,-13.25
29602,200.18
29616,-184.51
29629,-17.14
29642,201.56
29656,-184.31
29669,-18.35
29682,202.28
29696,-181.89
29709,-23.74
29722,207.51
29736,-182.00
29749,-26.05
29762,209.06
29776,-181.26
29789,-33.57
29803,209.57
29816,-169.29
29829,-36.80
29843,206.02
29856,-168.77
29869,-40.46
29882,208.08
29896,-168.19
29909,-41.48
29923,212.87
29936,-166.24
29949,-50.89
29963,212.99
29976,-158.14
29989,-53.72
30003,209.63
30016,-155.30
30029,-55.34
30042,210.35
30056,-150.25
30069,-62.84
30082,210.27
30096,-147.56
30109,-62.64
30123,214.72
30136,-148.71
30149,-71.53
30162,214.39
30176,-138.38
30189,-74.47
30202,213.66
30216,-133.18
30229,-107.23
30242,272.83
30256,-194.84
30269,-38.54
30282,230.02
30296,-183.30
30309,-118.14
30323,256.62
30336,-72.59
30349,-83.34
30362,178.64
30376,-165.65
30389,-107.01
30402,245.60
30416,-86.92
30429,-93.68
30442,207.36
30456,-129.51
30469,-111.93
30482,221.26
30496,-109.85
30509,-107.37
30523,225.90
30536,-108.15
30549,-116.95
30562,223.02
30576,-106.75
30589,-119.83
30603,225.51
30616,-103.37
30629,-124.41
30642,223.60
30656,-93.65
30669,-130.49
30682,221.66
30696,-85.13
30709,-136.33
30723,219.10
30736,-81.95
30749,-140.99
30762,219.73
30776,-74.33
30789,-144.51
30802,219.28
30815,-73.59
30829,-146.77
30842,220.24
30856,-70.81
30869,-154.89
30882,222.64
30896,-62.18
30909,-159.07
30923,219.78
30936,-58.85
30949,-163.00
30963,220.09
30975,-53.90
30989,-167.45
31002,217.71
31015,-43.79
31029,-175.07
31042,213.05
31055,-34.86
31069,-176.78
31082,212.16
31096,-31.82
31109,-185.35
31122,213.43
31135,-25.79
31149,-186.65
31162,214.77
31176,-26.35
31189,-191.67
31202,216.46
31216,-22.56
31229,-196.10
31243,218.59
31256,-20.42
31269,-197.42
31283,216.21
31296,-14.12
31309,-205.62
31322,209.43
31335,7.19
31349,-211.10
31362,192.60
31376,21.46
31389,-211.40
31402,190.14
31416,22.17
31429,-215.36
31443,194.04
31456,18.19
31469,-215.82
31482,208.42
31496,7.61
31509,-219.83
31522,209.74
31535,15.86
31549,-230.10
31562,205.54
31576,28.86
31589,-224.94
31603,201.08
31616,21.83
31629,-234.66
31643,218.41
31655,-3.06
31669,-223.84
31682,280.24
31696,-41.71
31709,-268.16
31723,246.47
31736,24.78
31749,-208.39
31762,235.87
31776,-14.40
31789,-299.38
31803,114.10
31816,252.50
31829,-138.74
31842,6.97
31856,50.14
31869,-272.62
31882,139.94
31896,171.02
31909,-205.95
31923,144.40
31935,68.22
31949,-276.91
31962,161.22
31976,98.33
31989,-257.27
32003,174.18
32016,96.46
32029,-267.28
32042,172.19
32055,97.89
32069,-269.52
32082,169.47
32096,97.13
32109,-273.74
32123,172.45
32136,108.44
32149,-277.64
32162,164.52
32176,114.16
32189,-275.33
32202,165.57
32216,110.20
32229,-281.84
32242,176.27
32256,84.17
32269,-268.72
32282,222.54
32296,75.63
32309,-313.21
32323,147.07
32336,177.54
32349,-167.61
32362,-94.40
32376,126.85
32389,-55.01
32402,154.60
32416,81.06
32429,-406.98
32442,58.80
32456,274.54
32469,-197.19
32482,127.23
32496,139.44
32509,-334.55
32522,98.44
32536,165.66
32549,-277.61
32562,146.58
32576,177.46
32589,-296.19
32602,121.89
32616,166.21
32629,-306.05
32642,123.40
32656,179.39
32669,-298.32
32682,125.82
32696,176.70
32709,-302.59
32723,123.61
32736,180.72
32749,-302.99
32763,122.04
32776,183.17
32789,-307.28
32802,116.84
32816,188.42
32829,-301.73
32843,115.91
32856,193.34
32869,-309.69
32882,105.88
32896,205.15
32909,-305.72
32922,97.68
32936,208.32
32949,-306.43
32962,95.71
32976,214.55
32989,-307.43
33002,86.49
33016,223.76
33029,-307.95
33042,78.07
33056,235.41
33069,-312.95
33082,72.68
33095,239.33
33109,-309.61
33122,76.98
33135,231.80
33149,-315.28
33162,78.75
33175,241.51
33189,-317.45
33202,72.48
33215,245.72
33229,-312.21
33242,70.03
33256,235.09
33269,-313.18
33282,80.39
33296,211.07
33309,-266.91
33322,107.93
33336,124.66
33349,-140.93
33363,-163.14
33376,140.73
33389,64.17
33402,166.60
33416,74.84
33429,-558.09
33442,23.61
33455,445.10
33469,-198.89
33482,-3.31
33495,237.43
33509,-319.01
33522,34.09
33535,275.50
33549,-348.52
33562,13.10
33576,311.23
33589,-277.79
33602,42.50
33615,284.13
33629,-333.73
33642,6.86
33655,287.93
33669,-307.31
33682,21.78
33696,295.57
33709,-302.22
33722,15.19
33735,289.80
33749,-307.43
33762,36.31
33776,229.91
33789,-251.03
33802,-73.36
33815,425.68
33829,-217.16
33842,-168.00
33855,122.20
33869,-223.79
33882,211.41
33896,420.46
33909,-379.76
33922,-203.20
33935,211.85
33949,-229.15
33962,101.33
33976,370.45
33989,-293.40
34002,-64.17
34016,250.28
34029,-296.22
34042,-1.25
34056,312.72
34069,-272.46
34082,-12.83
34095,304.06
34109,-285.40
34122,-24.93
34135,298.61
34149,-281.17
34162,-23.78
34176,302.56
34189,-281.82
34202,-22.29
34216,312.46
34229,-272.82
34242,-34.83
34256,298.93
34269,-275.16
34282,-30.64
34296,305.76
34309,-262.04
34322,-57.60
34336,311.48
34349,-218.50
34362,-53.19
34376,238.88
34389,-263.39
34402,-21.39
34416,375.97
34429,-257.59
34442,-114.47
34456,284.43
34469,-260.17
34482,-28.77
34496,375.19
34509,-264.05
34522,-118.93
34536,312.64
34549,-246.64
34562,-64.84
34576,351.34
34589,-248.32
34602,-96.11
34616,326.30
34629,-250.75
34642,-91.74
34656,347.28
34669,-238.40
34682,-100.73
34696,337.46
34709,-239.66
34722,-107.20
34736,343.60
34749,-227.33
34762,-113.41
34776,339.84
34789,-227.11
34802,-119.44
34816,345.96
34829,-216.76
34842,-130.79
34856,340.87
34869,-206.29
34882,-133.71
34896,335.74
34909,-196.14
34922,-138.50
34936,328.38
34949,-188.07
34962,-140.95
34976,328.43
34989,-183.53
35002,-144.57
35016,325.25
35029,-178.93
35042,-150.40
35056,328.94
35069,-172.35
35082,-156.03
35096,325.10
35109,-170.77
35122,-155.42
35136,326.38
35149,-165.69
35162,-161.06
35176,324.15
35189,-163.96
35202,-160.51
35216,324.11
35229,-153.81
35242,-181.20
35256,331.24
35269,-148.28
35282,-176.22
35296,334.19
35309,-159.35
35322,-191.69
35336,341.52
35349,-139.70
35362,-191.85
35376,335.48
35389,-140.78
35402,-203.88
35416,333.84
35429,-125.75
35442,-204.34
35456,330.76
35469,-121.83
35482,-211.24
35496,330.72
35509,-115.89
35522,-217.47
35536,329.95
35549,-111.25
35562,-218.84
35576,332.71
35589,-110.27
35602,-226.12
35616,335.54
35629,-109.11
35642,-229.60
35656,341.01
35669,-106.25
35682,-238.57
35696,340.38
35709,-97.55
35722,-241.75
35735,337.84
35749,-92.74
35762,-247.17
35776,332.23
35789,-80.61
35802,-247.53
35816,327.31
35829,-75.11
35843,-256.82
35855,325.54
35868,-67.01
35882,-256.74
35895,325.93
35908,-62.30
35922,-268.25
35935,320.84
35949,-50.00
35962,-263.99
35975,314.45
35989,-50.26
36002,-270.51
36016,321.26
36029,-46.59
36042,-275.68
36056,321.77
36069,-43.50
36082,-283.19
36096,323.30
36109,-32.83
36122,-287.26
36136,317.22
36149,-29.90
36162,-290.61
36176,315.16
36189,-19.50
36202,-292.29
36216,311.35
36229,-15.51
36242,-298.27
36255,305.02
36268,0.51
36282,-307.60
36296,303.15
36309,18.13
36322,-313.64
36336,261.51
36349,43.08
36362,-290.73
36376,287.07
36389,66.18
36402,-354.23
36415,31.55
36429,233.45
36442,59.07
36456,-85.60
36469,-76.86
36482,-111.71
36496,112.25
36509,133.86
36522,-190.10
36535,65.68
36549,145.13
36562,-224.65
36576,69.34
36589,127.83
36602,-139.19
36615,-33.57
36629,102.50
36642,-127.14
36656,155.35
36669,142.83
36682,-376.48
36696,100.58
36709,174.33
36722,-233.21
36735,213.97
36749,61.64
36762,-348.00
36776,233.57
36789,98.56
36802,-315.57
36816,252.35
36829,73.54
36842,-343.92
36856,257.89
36869,91.70
36882,-348.15
36896,254.57
36909,101.68
36922,-354.97
36936,244.53
36949,110.70
36962,-353.67
36976,240.27
36989,117.16
37002,-354.09
37016,233.57
37029,121.18
37042,-355.90
37056,232.48
37069,126.08
37082,-356.61
37096,225.15
37109,133.76
37122,-355.20
37136,218.75
37149,137.41
37162,-355.58
37176,211.15
37189,146.01
37202,-349.36
37216,202.59
37229,146.29
37242,-351.81
37256,198.57
37269,156.11
37282,-347.44
37296,191.63
37309,155.16
37322,-347.35
37336,185.96
37349,163.11
37362,-345.12
37376,177.95
37389,169.32
37402,-343.94
37416,172.96
37429,169.79
37442,-343.39
37456,171.22
37469,174.82
37482,-342.54
37496,163.72
37509,178.66
37522,-340.39
37536,157.33
37549,185.13
37562,-335.78
37576,146.53
37589,186.75
37602,-333.74
37615,143.90
37629,193.72
37642,-331.58
37656,134.94
37669,194.13
37682,-329.17
37696,130.89
37709,200.99
37722,-326.07
37736,121.41
37749,204.86
37762,-325.77
37776,116.10
37789,210.78
37802,-321.38
37815,110.47
37829,209.30
37842,-320.72
37856,104.52
37869,220.02
37882,-314.91
37895,91.93
37909,217.85
37922,-310.74
37936,90.74
37949,224.52
37962,-311.38
37975,82.60
37989,228.60
38002,-307.93
38015,75.05
38029,232.31
38042,-305.06
38055,71.47
38069,234.72
38082,-303.53
38095,63.03
38108,243.40
38122,-301.49
38135,51.95
38149,246.06
38162,-292.58
38175,48.21
38189,244.48
38202,-294.90
38215,44.15
38229,253.75
38242,-290.48
38255,36.31
38269,252.39
38282,-291.38
38295,32.56
38309,261.15
38322,-283.65
38335,21.70
38349,258.60
38362,-282.76
38375,19.00
38389,266.46
38402,-277.00
38415,9.64
38429,264.30
38442,-274.23
38455,3.81
38469,272.76
38482,-269.06
38495,-6.35
38509,272.45
38522,-264.19
38536,-12.21
38549,279.18
38562,-261.89
38575,-19.75
38589,277.04
38602,-257.03
38615,-21.42
38629,282.42
38642,-254.71
38655,-33.33
38669,284.61
38682,-249.41
38695,-37.02
38709,287.61
38722,-245.56
38735,-47.07
38749,292.84
38762,-240.87
38775,-55.63
38789,292.87
38802,-234.66
38815,-58.80
38829,295.30
38842,-231.41
38855,-70.26
38869,298.95
38882,-223.36
38895,-77.89
38909,300.51
38922,-219.80
38935,-83.46
38949,303.13
38962,-215.24
38975,-90.47
38989,304.54
39002,-212.50
39015,-96.10
39029,309.36
39042,-206.87
39055,-104.63
39069,307.88
39082,-201.29
39096,-108.08
39109,310.15
39122,-198.88
39135,-115.72
39149,314.45
39162,-193.01
39175,-123.87
39189,312.77
39202,-186.64
39216,-126.93
39229,314.62
39242,-183.40
39255,-135.26
39269,316.34
39282,-177.88
39296,-141.13
39309,319.27
39322,-173.28
39336,-148.01
39349,319.10
39362,-169.71
39375,-153.18
39389,323.61
39402,-164.22
39416,-160.77
39429,321.54
39442,-157.89
39455,-167.50
39469,324.80
39482,-152.00
39496,-175.79
39509,326.11
39522,-145.41
39536,-182.65
39549,325.85
39562,-139.81
39576,-190.17
39589,328.42
39602,-131.37
39616,-197.96
39629,325.80
39642,-125.68
39656,-204.15
39669,329.89
39682,-118.60
39696,-211.95
39709,326.21
39722,-114.46
39735,-214.45
39749,330.26
39762,-108.14
39775,-223.80
39789,326.11
39802,-100.88
39816,-228.11
39829,331.83
39842,-96.94
39855,-237.75
39869,327.24
39882,-87.61
39895,-239.56
39909,330.09
39922,-83.41
39935,-251.97
39949,328.39
39962,-74.14
39975,-253.07
39989,326.90
40002,-67.90
40016,-261.57
40029,326.85
40042,-63.01
40055,-267.66
40069,329.21
40082,-55.74
40095,-271.98
40109,324.82
40122,-53.64
40135,-273.85
40149,327.15
40162,-46.57
40175,-278.96
40189,318.59
40202,-41.43
40216,-273.86
40229,315.81
40242,-38.80
40256,-278.09
40269,311.39
40282,-33.28
40295,-274.43
40309,307.45
40322,-29.26
40335,-278.90
40349,302.66
40362,-25.49
40375,-275.43
40389,303.61
40402,-23.73
40415,-281.27
40429,297.58
40442,-15.52
40455,-277.96
40469,294.40
40482,-17.13
40495,-278.54
40509,292.79
40522,-10.84
40536,-279.95
40549,289.41
40562,-10.93
40575,-279.39
40594,288.26
40602,-4.32
40615,-280.39
40628,281.80
40641,-4.10
40655,-279.99
40668,283.46
40682,2.01
40695,-282.93
40709,276.95
40722,5.25
40735,-280.85
40749,272.52
40762,10.58
40775,-280.94
40789,265.92
40802,15.49
40815,-277.77
40829,262.90
40842,13.89
40855,-279.04
40869,260.66
40882,22.60
40895,-277.03
40909,250.19
40922,25.31
40935,-275.54
40949,249.79
40962,25.86
40975,-274.26
40989,245.93
41002,31.96
41015,-274.60
41029,236.61
41042,37.06
41055,-272.20
41069,233.66
41082,40.85
41095,-272.28
41109,228.10
41122,45.67
41135,-272.83
41149,226.36
41162,44.93
41175,-272.69
41189,225.34
41202,53.00
41215,-271.96
41229,212.58
41242,56.24
41255,-268.54
41269,210.80
41282,60.70
41295,-268.60
41309,206.88
41322,62.11
41335,-270.88
41349,204.72
41362,68.49
41375,-267.47
41389,193.63
41402,74.24
41415,-263.57
41429,185.71
41442,76.60
41455,-261.43
41469,182.11
41482,83.00
41495,-260.48
41509,173.31
41522,84.93
41535,-257.14
41549,169.34
41562,90.59
41576,-255.45
41589,159.50
41602,95.70
41616,-251.57
41629,153.62
41642,96.38
41655,-247.38
41669,148.84
41682,100.15
41696,-246.38
41709,142.09
41722,104.37
41735,-244.32
41749,135.26
41762,113.27
41776,-245.94
41789,131.39
41802,113.05
41815,-247.06
41829,131.72
41842,121.29
41856,-250.17
41869,124.13
41882,126.12
41895,-249.46
41909,122.36
41922,127.73
41935,-249.62
41949,119.14
41962,131.25
41975,-243.74
41989,106.35
42002,137.57
42015,-239.35
42029,97.46
42042,138.85
42055,-234.05
42069,92.59
42082,146.62
42095,-230.38
42109,76.39
42122,147.38
42135,-223.35
42149,75.24
42162,152.44
42175,-222.58
42189,63.70
42202,158.89
42216,-216.63
42229,53.51
42242,161.42
42255,-214.44
42269,50.09
42282,166.68
42295,-212.85
42309,45.11
42322,168.71
42335,-215.33
42349,42.90
42362,173.50
42375,-213.21
42389,35.67
42402,180.24
42415,-210.64
42429,24.08
42442,183.99
42455,-202.80
42468,16.37
42482,186.85
42495,-199.71
42508,6.12
42522,193.73
42535,-192.34
42549,-3.35
42562,193.65
42575,-190.26
42589,-6.95
42602,198.41
42615,-186.01
42629,-16.79
42642,203.44
42655,-182.33
42668,-23.06
42682,200.10
42695,-174.99
42709,-27.33
42722,205.63
42735,-166.79
42749,-49.62
42762,194.84
42775,-113.24
42788,-89.01
42802,204.40
42815,-113.59
42829,-100.17
42842,202.65
42855,-117.16
42868,-56.40
42882,209.47
42895,-183.85
42909,-28.08
42922,208.54
42935,-201.96
42949,-22.38
42962,253.08
42975,-169.67
42988,-98.39
43002,216.90
43015,-137.20
43028,-78.31
43042,239.29
43055,-133.07
43068,-105.56
43082,225.97
43095,-130.22
43109,-104.37
43122,231.96
43135,-120.34
43149,-110.08
43162,236.02
43175,-119.70
43189,-122.06
43202,237.41
43215,-113.27
43229,-128.04
43242,241.41
43255,-108.06
43269,-137.56
43282,244.98
43295,-102.30
43309,-144.50
43322,246.91
43336,-101.05
43349,-149.93
43362,247.90
43375,-91.44
43389,-158.45
43402,251.13
43415,-87.65
43429,-172.01
43442,255.19
43455,-75.73
43469,-177.32
43482,254.33
43495,-89.29
43509,-169.19
43522,327.18
43535,-220.98
43549,-103.42
43562,260.52
43575,-156.16
43589,-35.86
43602,319.04
43615,-231.30
43629,-269.21
43642,300.54
43655,-13.52
43669,-127.21
43682,287.73
43695,-126.83
43709,-248.65
43722,265.67
43735,-60.33
43749,-185.64
43762,288.02
43775,-63.32
43789,-208.71
43802,264.32
43815,-70.07
43829,-206.82
43842,269.40
43855,-61.91
43869,-204.52
43882,267.89
43895,-61.07
43909,-204.97
43922,267.85
43935,-60.15
43949,-208.23
43962,265.19
43975,-58.62
43989,-208.57
44002,265.72
44015,-54.86
44029,-208.61
44042,264.29
44055,-55.07
44069,-210.87
44082,264.57
44095,-51.87
44109,-212.68
44122,262.71
44135,-49.27
44149,-213.29
44162,260.78
44175,-45.52
44189,-213.34
44202,256.93
44215,-43.53
44229,-212.78
44242,255.02
44255,-42.54
44269,-211.76
44282,253.44
44295,-40.09
44309,-212.60
44322,251.47
44335,-38.44
44349,-213.97
44362,249.59
44375,-32.26
44389,-213.75
44402,242.84
44415,-30.56
44429,-212.23
44442,241.16
44455,-25.99
44469,-212.58
44482,236.86
44495,-26.60
44509,-211.12
44522,237.43
44535,-22.16
44549,-215.03
44562,233.59
44575,-17.23
44589,-214.91
44602,229.53
44615,-14.78
44629,-212.84
44642,227.53
44655,-14.31
44669,-213.64
44682,224.56
44695,-8.00
44709,-212.73
44722,216.86
44735,-4.94
44749,-211.19
44762,213.99
44775,-1.40
44789,-209.07
44802,208.75
44815,-0.51
44829,-206.83
44842,201.88
44855,7.21
44869,-194.24
44882,159.79
44895,32.25
44909,-158.15
44922,131.85
44935,9.39
44949,-170.04
44962,163.46
44975,18.22
44989,-178.49
45002,182.62
45015,9.07
45029,-209.15
45042,172.61
45055,26.19
45069,-191.41
45082,181.74
45095,21.79
45109,-206.57
45122,182.61
45135,23.59
45149,-216.46
45162,187.90
45175,34.65
45188,-216.20
45202,175.11
45215,42.32
45229,-208.58
45242,160.79
45255,44.02
45269,-203.33
45282,162.24
45295,41.02
45308,-212.51
45322,174.61
45335,47.53
45349,-225.44
45362,176.41
45375,52.72
45388,-238.23
45402,187.90
45415,55.38
45429,-250.39
45442,194.39
45455,58.72
45469,-219.34
45482,101.49
45496,109.91
45508,-134.19
45522,36.50
45535,62.05
45549,-208.01
45562,190.50
45575,70.91
45589,-242.88
45602,176.61
45615,83.64
45629,-261.90
45642,109.66
45655,96.80
45669,-187.95
45682,141.39
45695,96.04
45709,-216.10
45722,87.40
45735,91.92
45749,-188.31
45762,87.45
45775,106.98
45788,-172.77
45802,71.30
45815,102.34
45828,-170.70
45842,62.80
45855,102.25
45869,-167.41
45882,57.88
45895,115.26
45909,-163.27
45922,44.08
45935,115.20
45949,-156.62
45962,39.83
45975,119.85
45989,-156.56
46002,30.94
46015,122.88
46028,-150.58
46042,25.57
46055,128.71
46069,-154.15
46082,27.28
46095,125.07
46108,-157.82
46122,25.62
46135,143.58
46149,-152.29
46162,0.64
46175,135.28
46189,-131.23
46202,-24.85
46215,166.73
46229,-102.01
46242,-52.14
46255,113.77
46268,-88.81
46282,-49.13
46295,166.57
46308,-32.90
46322,-117.56
46335,77.81
46349,-29.24
46362,-49.92
46375,135.61
46388,-36.40
46402,-95.37
46415,111.96
46429,-49.07
46442,-88.77
46455,177.93
46469,-114.48
46482,-46.23
46495,166.36
46509,-130.25
46522,-28.24
46535,187.83
46548,-148.21
46562,-84.89
46575,190.92
46588,-99.68
46602,-63.80
46615,194.00
46628,-110.28
46642,-106.24
46655,194.13
46668,-87.56
46682,-104.05
46695,189.15
46708,-94.56
46722,-90.26
46735,201.68
46749,-99.44
46762,-107.10
46775,200.28
46789,-102.80
46802,-111.89
46815,216.06
46828,-82.79
46842,-129.72
46855,209.34
46869,-78.50
46882,-139.50
46895,209.91
46908,-64.65
46922,-139.16
46935,207.49
46949,-70.21
46962,-143.13
46975,211.30
46988,-64.15
47002,-146.13
47015,209.95
47028,-62.83
47042,-146.45
47055,201.81
47068,-49.88
47082,-141.18
47095,154.48
47108,5.70
47122,-121.02
47135,130.16
47148,-109.09
47162,-11.15
47175,237.19
47189,-309.51
47202,-27.14
47215,370.60
47229,-123.15
47242,-220.52
47255,187.42
47268,-88.44
47282,-138.77
47295,275.90
47308,-17.76
47322,-162.41
47335,165.29
47348,-71.30
47362,-154.28
47375,169.51
47388,8.68
47402,-121.94
47415,158.66
47429,-119.58
47442,34.73
47455,187.74
47468,-395.75
47482,-9.44
47495,511.26
47508,-90.88
47525,-340.08
47535,131.65
47548,-90.46
47562,-98.87
47575,374.20
47588,-21.04
47602,-236.45
47615,174.72
47628,-98.28
47642,-184.44
47655,266.48
47668,-27.18
47682,-172.06
47695,240.75
47709,-60.53
47722,-198.10
47735,237.12
47748,-54.89
47762,-191.35
47775,241.60
47789,-43.59
47802,-187.50
47815,234.72
47828,-43.04
47842,-189.64
47855,231.48
47868,-44.39
47882,-192.39
47895,232.73
47908,-39.06
47922,-191.21
47935,230.54
47948,-37.29
47962,-192.28
47975,229.40
47988,-36.51
48002,-193.87
48015,229.15
48028,-36.47
48042,-193.79
48055,230.03
48068,-32.00
48082,-195.13
48095,221.01
48108,-26.07
48122,-190.68
48135,212.50
48148,-21.20
48162,-185.99
48175,201.19
48188,-15.65
48202,-165.63
48215,130.14
48228,47.20
48242,-146.27
48255,188.95
48268,-137.31
48282,-27.48
48295,5.36
48308,20.19
48322,62.02
48335,68.23
48348,8.90
48362,-195.14
48375,28.23
48388,-3.89
48402,-108.55
48415,391.41
48428,-108.38
48442,-304.71
48455,299.21
48468,-3.60
48482,-271.89
48495,131.68
48508,66.50
48522,-49.23
48535,34.00
48548,74.03
48562,-72.07
48575,-61.32
48588,-3.09
48602,-93.02
48615,349.19
48628,-69.43
48642,-474.53
48655,314.61
48669,170.83
48682,-123.83
48695,165.65
48708,-181.86
48722,-342.92
48735,212.82
48748,215.99
48762,-28.35
48775,95.68
48788,-71.64
48802,-229.23
48815,52.40
48828,82.43
48842,-59.82
48855,103.03
48868,43.79
48882,-123.85
48895,51.59
48908,34.40
48922,-114.85
48935,64.26
48948,45.74
48962,-108.94
48975,78.97
48988,48.21
49002,-119.49
49015,71.68
49029,44.34
49042,-123.23
49055,69.64
49068,50.45
49082,-115.90
49095,63.04
49108,56.21
49122,-113.46
49135,63.93
49148,47.13
49162,-124.48
49175,77.02
49188,56.68
49202,-129.88
49215,64.84
49228,63.75
49242,-113.78
49255,28.82
49268,77.55
49282,-70.76
49295,-26.05
49308,95.42
49321,-56.92
49335,-33.74
49348,95.76
49362,-161.06
49375,136.95
49388,50.28
49402,-193.54
49415,130.69
49428,100.71
49442,-203.85
49455,26.49
49468,96.28
49482,-108.72
49495,79.42
49508,99.31
49522,-150.21
49535,4.85
49548,65.73
49562,-63.92
49575,-25.20
49589,145.84
49602,-78.27
49615,-69.48
49628,76.00
49642,-49.86
49655,26.37
49668,110.07
49682,-120.23
49695,-54.41
49709,104.80
49722,-67.83
49735,0.04
49748,120.49
49762,-98.07
49775,-38.92
49788,115.24
49802,-84.87
49815,-40.20
49828,125.45
49842,-73.44
49855,-52.51
49868,127.82
49882,-64.32
49895,-70.75
49908,130.00
49921,-52.51
49935,-80.49
49948,127.23
49961,-48.59
49975,-77.35
49988,133.14
50002,-54.55
50015,-83.25
50028,138.52
50041,-51.14
50055,-90.39
50068,137.55
50082,-45.79
50095,-91.41
50109,135.53
50122,-40.74
50135,-92.28
50149,134.64
50162,-47.02
50175,-93.11
50188,140.77
50202,-40.01
50215,-95.40
50228,127.24
50242,-36.27
50255,-87.02
50268,118.28
50282,-26.44
50295,-84.37
50308,112.30
50322,-37.64
50335,-84.46
50348,128.59
50361,-35.28
50375,-90.85
50388,120.87
50402,-30.44
50415,-80.78
50428,70.39
50441,27.53
50455,-47.69
50468,13.27
50482,-11.45
50495,-27.61
50508,63.66
50521,-0.22
50535,-71.62
50548,108.92
50562,-80.51
50575,-94.21
50588,190.47
50602,-23.29
50615,-132.00
50628,122.75
50642,-49.29
50655,-97.48
50668,172.82
50682,-34.59
50695,-120.42
50708,146.02
50722,-45.36
50735,-116.24
50749,158.71
50762,-37.05
50775,-114.63
50788,158.44
50802,-39.99
50815,-120.42
50828,152.56
50842,-32.62
50855,-116.06
50868,145.77
50881,-31.30
50895,-112.81
50908,145.50
50922,-32.18
50935,-114.35
50948,147.58
50962,-31.66
50975,-117.41
50988,149.10
51002,-33.04
51015,-118.44
51028,150.98
51042,-28.68
51055,-119.99
51068,148.53
51081,-29.81
51095,-120.99
51108,152.13
51122,-33.82
51135,-119.15
51148,149.05
51162,-17.75
51175,-114.12
51188,87.98
51202,32.60
51215,-85.30
51228,74.87
51242,-43.09
51255,-89.74
51268,177.99
51282,-27.05
51295,-152.20
51308,192.07
51322,-93.73
51335,-156.40
51348,249.62
51362,-15.97
51375,-170.01
51388,149.65
51402,-45.03
51415,-127.02
51428,187.20
51442,-19.45
51455,-142.96
51469,148.86
51481,-26.40
51495,-132.97
51508,157.42
51522,-18.93
51535,-131.89
51548,155.01
51562,-20.27
51575,-137.21
51588,155.22
51602,-20.30
51615,-137.66
51628,154.55
51642,-11.54
51655,-134.34
51669,139.41
51681,-8.06
51695,-109.03
51708,55.01
51722,73.12
51735,-64.68
51748,30.59
51762,-53.00
51775,-115.43
51788,355.92
51802,-199.21
51815,-287.20
51828,385.51
51842,76.18
51855,-252.46
51868,79.06
51882,-77.18
51895,-117.55
51908,277.50
51922,30.79
51935,-186.05
51948,116.76
51961,-38.14
51975,-157.96
51989,169.42
52002,17.29
52015,-137.30
52028,147.27
52041,-0.57
52055,-150.07
52068,132.69
52081,2.42
52095,-140.24
52108,134.85
52122,10.73
52135,-139.26
52148,133.38
52162,8.10
52175,-144.16
52188,132.81
52202,11.99
52215,-142.57
52228,128.21
52241,14.90
52255,-141.82
52268,117.42
52281,25.42
52295,-132.87
52308,106.87
52322,26.30
52335,-128.46
52348,90.07
52362,35.07
52377,-116.52
52388,83.87
52401,28.93
52415,-112.98
52428,79.04
52441,38.43
52455,-105.28
52468,54.85
52482,44.08
52495,-84.79
52508,31.96
52521,47.05
52535,-64.57
52548,3.25
52561,56.33
52575,-31.99
52588,-17.89
52602,37.98
52615,-62.69
52628,50.84
52641,18.00
52655,-70.08
52668,24.67
52682,86.08
52695,-46.95
52708,-63.29
52722,26.98
52735,-38.14
52748,52.04
52762,79.06
52775,-81.05
52788,-14.26
52802,48.63
52815,-79.15
52828,19.07
52842,69.97
52855,-71.47
52868,25.46
52882,65.21
52895,-89.32
52908,0.62
52922,69.82
52935,-70.03
52948,-1.92
52962,77.70
52975,-61.46
52988,-15.70
53002,75.50
53015,-60.44
53028,-19.98
53042,77.54
53055,-56.45
53068,-23.18
53081,84.94
53095,-56.21
53108,-32.49
53121,83.24
53135,-53.97
53148,-27.64
53161,88.15
53175,-52.19
53188,-41.83
53202,73.01
53215,-19.35
53228,-33.32
53241,57.19
53255,-52.21
53268,-35.03
53282,110.78
53295,-50.06
53308,-26.49
53322,56.21
53335,-82.55
53348,2.93
53362,122.13
53375,-71.08
53388,-65.16
53402,93.83
53415,-45.58
53428,-43.78
53442,112.83
53455,-45.86
53468,-69.06
53482,97.81
53495,-42.06
53508,-60.61
53522,108.64
53535,-37.52
53548,-67.42
53562,103.73
53575,-38.42
53588,-68.89
53602,106.10
53615,-35.80
53628,-69.78
53642,105.80
53655,-35.98
53668,-70.84
53682,107.62
53695,-35.90
53708,-72.51
53721,110.11
53735,-37.53
53748,-75.61
53762,112.89
53775,-36.01
53788,-77.13
53802,114.78
53815,-37.05
53828,-79.51
53841,115.21
53855,-34.66
53868,-79.82
53881,116.44
53895,-37.71
53908,-81.40
53922,116.18
53935,-30.71
53948,-78.33
53962,99.64
53975,-21.57
53988,-69.63
54001,86.98
54015,-22.74
54028,-64.72
54041,92.89
54055,-25.97
54068,-68.92
54081,93.10
54095,-22.99
54108,-69.36
54121,90.99
54135,-23.23
54148,-69.10
54162,96.17
54175,-25.08
54188,-74.81
54202,101.71
54215,-27.67
54228,-77.56
54241,111.49
54255,-33.70
54268,-88.43
54282,138.38
54295,-53.89
54308,-101.89
54322,154.55
54335,-33.03
54348,-105.87
54362,126.74
54375,-37.28
54388,-95.71
54402,134.95
54415,-27.75
54428,-97.68
54442,124.74
54455,-33.20
54468,-95.83
54482,125.75
54495,-28.22
54508,-95.27
54522,124.30
54535,-27.48
54548,-96.51
54562,123.62
54575,-27.95
54588,-98.10
54602,126.72
54615,-27.46
54628,-98.63
54642,127.62
54655,-30.60
54668,-102.01
54682,136.48
54695,-30.78
54708,-107.95
54722,139.19
54735,-32.52
54748,-110.47
54762,144.75
54775,-30.16
54788,-113.46
54802,140.35
54815,-27.74
54828,-113.75
54842,143.02
54855,-26.75
54868,-116.08
54881,138.51
54895,-22.34
54908,-115.11
54921,139.70
54935,-22.53
54948,-118.41
54961,135.23
54975,-16.22
54988,-111.51
55002,119.43
55015,-8.19
55028,-91.20
55041,70.34
55055,24.67
55068,-78.02
55081,82.03
55095,-41.10
55108,-105.14
55122,222.27
55135,-98.38
55148,-162.50
55161,230.09
55175,-4.31
55188,-168.69
55202,113.63
55215,-28.06
55228,-99.88
55242,171.32
55255,-4.04
55268,-134.15
55281,108.75
55295,-19.88
55308,-111.43
55322,130.14
55335,-2.76
55348,-108.29
55362,119.18
55375,-11.09
55388,-115.88
55401,125.09
55415,-13.78
55428,-115.54
55442,128.66
55455,-6.87
55468,-117.63
55481,123.87
55495,-8.98
55508,-117.15
55522,127.23
55535,-8.83
55548,-117.52
55562,125.07
55575,-6.55
55588,-118.56
55601,123.17
55615,-5.41
55628,-115.28
55642,118.87
55655,-3.23
55668,-114.15
55682,119.38
55695,-5.39
55708,-117.72
55722,120.95
55735,-1.41
55748,-116.20
55761,115.98
55775,0.45
55788,-114.79
55801,112.40
55815,1.22
55828,-113.57
55842,111.90
55855,3.22
55868,-112.56
55881,106.78
55895,5.06
55908,-111.45
55922,106.87
55935,5.26
55948,-114.08
55962,111.21
55975,2.06
55988,-117.63
56002,115.74
56015,8.28
56028,-119.53
56042,104.52
56055,12.17
56068,-113.79
56081,97.98
56095,15.43
56108,-110.62
56121,98.26
56135,14.19
56148,-113.68
56161,94.61
56175,17.98
56188,-109.78
56201,91.42
56215,19.13
56228,-107.59
56242,82.93
56255,25.35
56268,-103.71
56281,76.44
56295,26.01
56308,-100.95
56322,70.22
56335,31.88
56348,-96.53
56362,63.95
56375,31.54
56388,-97.74
56401,61.45
56415,39.67
56428,-93.22
56442,50.95
56455,38.18
56468,-89.13
56481,48.16
56495,43.45
56508,-86.76
56522,41.24
56535,43.48
56548,-83.99
56561,38.58
56575,46.52
56588,-83.51
56601,34.66
56615,50.69
56628,-81.37
56641,25.52
56655,53.44
56668,-76.55
56681,21.62
56695,57.15
56708,-73.20
56722,12.60
56735,56.50
56748,-70.51
56761,12.96
56775,63.75
56788,-73.16
56801,6.05
56815,64.25
56828,-72.34
56841,6.93
56855,68.85
56868,-69.54
56881,-3.45
56895,70.27
56908,-64.51
56921,-8.77
56935,72.63
56948,-59.62
56961,-15.46
56975,76.17
56988,-57.89
57001,-21.64
57015,79.46
57028,-56.30
57041,-27.22
57055,83.91
57068,-52.60
57081,-31.83
57095,85.03
57108,-53.16
57121,-35.50
57135,89.06
57148,-51.22
57161,-40.60
57175,94.25
57188,-50.92
57201,-47.17
57215,96.25
57228,-45.70
57241,-51.03
57255,96.33
57268,-44.99
57281,-52.42
57295,98.62
57308,-45.95
57321,-54.96
57335,101.72
57348,-44.03
57361,-58.77
57375,101.44
57388,-41.63
57401,-61.30
57415,102.51
57428,-39.41
57441,-62.68
57455,101.58
57468,-38.45
57482,-64.19
57495,102.62
57508,-37.49
57521,-66.72
57535,103.96
57548,-35.89
57561,-66.82
57575,102.55
57588,-36.77
57601,-67.41
57615,104.51
57628,-35.08
57641,-70.16
57655,104.90
57668,-34.20
57681,-71.64
57695,105.28
57708,-31.76
57721,-72.66
57735,103.88
57748,-32.81
57761,-73.04
57775,106.31
57788,-30.39
57801,-75.61
57815,106.39
57828,-30.87
57841,-77.86
57855,108.93
57868,-31.07
57882,-79.03
57895,111.34
57908,-29.66
57922,-81.46
57935,109.09
57948,-28.91
57961,-80.79
57975,110.53
57988,-27.33
58001,-83.01
58015,108.21
58028,-26.70
58041,-80.55
58055,108.47
58068,-26.10
58081,-83.57
58095,107.70
58108,-23.72
58121,-83.90
58135,108.16
58148,-23.58
58161,-85.84
58175,110.88
58188,-24.56
58201,-89.80
58215,115.44
58228,-23.06
58241,-92.26
58255,113.01
58268,-20.69
58281,-91.89
58295,112.50
58308,-19.89
58322,-92.95
58335,112.43
58348,-19.65
58361,-92.57
58375,112.17
58388,-17.46
58402,-95.35
58415,110.99
58428,-16.46
58441,-94.33
58455,110.90
58468,-14.24
58481,-95.24
58495,107.57
58508,-14.04
58521,-94.07
58535,108.18
58548,-11.38
58561,-96.07
58575,105.77
58588,-11.51
58601,-91.89
58615,100.47
58628,-7.50
58641,-83.45
58655,69.82
58668,19.74
58681,-56.44
58694,12.73
58708,18.23
58722,-14.66
58735,16.87
58748,-0.70
58761,-47.28
58775,51.09
58788,9.68
58802,-62.23
58815,73.77
58828,-14.86
58841,-88.04
58855,95.07
58868,2.43
58881,-86.95
58895,96.86
58908,-11.54
58921,-97.66
58935,105.86
58948,-5.92
58961,-97.98
58975,102.92
58988,-4.19
59001,-97.12
59015,102.29
59028,-6.46
59041,-97.39
59055,103.16
59068,-3.80
59081,-97.94
59095,100.28
59108,-3.93
59121,-95.67
59135,100.20
59148,-4.02
59161,-96.75
59175,99.77
59188,-1.47
59201,-96.85
59214,96.62
59228,-0.78
59241,-94.58
59255,92.21
59268,3.40
59281,-92.18
59295,91.18
59308,-1.58
59321,-94.21
59335,95.18
59348,1.99
59361,-94.19
59375,91.17
59388,2.53
59401,-91.41
59415,81.53
59428,10.50
59441,-83.77
59455,68.83
59468,12.53
59481,-75.30
59495,55.64
59508,19.71
59521,-68.66
59535,51.04
59548,12.23
59561,-77.37
59575,93.02
59588,-18.94
59601,-105.36
59615,125.68
59628,5.38
59641,-89.81
59655,15.27
59668,68.44
59681,-30.21
59694,-27.64
59708,5.83
59721,-28.25
59734,61.09
59748,29.17
59761,-75.45
59775,27.11
59788,10.55
59801,-66.39
59815,61.19
59828,28.33
59841,-70.05
59855,42.83
59868,24.00
59881,-68.12
59895,35.37
59908,25.40
59921,-63.75
59935,42.49
59948,30.18
59961,-67.85
59975,33.87
59988,28.28
60001,-64.11
60015,37.67
60028,32.25
60041,-67.83
60055,28.68
60068,35.64
60081,-61.54
60095,25.64
60108,38.38
60121,-59.27
60135,16.75
60148,40.34
60161,-54.65
60175,11.06
60188,43.04
60201,-50.23
60215,7.48
60228,42.17
60241,-52.19
60255,9.03
60268,46.93
60281,-55.23
60294,6.26
60308,48.21
60321,-52.21
60334,0.93
60348,52.45
60361,-51.26
60375,-2.59
60388,52.52
60401,-51.05
60415,-1.40
60428,56.75
60441,-50.15
60455,-12.88
60468,56.52
60481,-43.65
60495,-8.62
60508,58.29
60521,-49.30
60535,-14.78
60548,61.15
60561,-44.80
60575,-14.89
60588,61.25
60601,-45.10
60615,-17.77
60628,61.52
60641,-43.49
60655,-18.68
60668,62.45
60681,-42.04
60695,-20.46
60708,62.51
60721,-44.23
60735,-18.50
60748,64.49
60761,-43.51
60775,-23.15
60788,64.48
60801,-40.99
60815,-23.90
60828,69.12
60841,-45.75
60855,-23.61
60868,65.08
60881,-45.15
60895,-13.06
60908,53.16
60921,-22.61
60935,-31.40
60948,38.43
60961,-19.63
60974,-11.69
60988,45.96
61001,-39.40
61015,-13.19
61028,67.86
61041,-46.74
61055,-34.16
61068,67.87
61081,-39.21
61095,-25.89
61108,76.99
61122,-41.36
61135,-36.42
61148,72.91
61161,-40.80
61175,-37.03
61188,76.91
61201,-37.45
61215,-36.22
61228,77.82
61241,-42.43
61255,-39.31
61268,80.95
61281,-39.70
61295,-40.87
61308,79.00
61321,-38.30
61335,-40.72
61348,80.06
61361,-37.52
61375,-43.99
61388,79.42
61401,-33.89
61415,-45.13
61428,79.74
61441,-35.86
61455,-45.22
61468,82.76
61481,-35.56
61495,-49.33
61508,82.14
61521,-30.22
61535,-50.67
61548,81.38
61561,-30.83
61575,-52.55
61588,82.36
61601,-29.04
61615,-53.22
61628,82.98
61641,-28.25
61655,-54.57
61668,81.28
61681,-26.79
61695,-55.62
61708,81.46
61721,-23.42
61735,-56.62
61748,78.19
61761,-21.73
61775,-57.35
61788,80.41
61801,-20.85
61815,-61.27
61828,79.13
61841,-17.38
61855,-60.60
61868,79.28
61881,-16.71
61895,-65.20
61908,81.84
61921,-15.48
61935,-68.73
61948,80.75
61961,-8.23
61975,-67.57
61988,76.15
62001,-12.78
62015,-66.43
62028,78.35
62041,-8.76
62055,-67.57
62068,76.45
62081,-8.22
62095,-70.41
62108,77.33
62121,-7.04
62135,-69.58
62148,76.82
62166,-5.65
62174,-71.49
62188,77.68
62201,-7.15
62214,-71.62
62228,76.09
62241,-1.68
62254,-70.43
62268,68.40
62281,2.45
62295,-66.51
62308,58.76
62321,2.06
62335,-57.97
62348,62.22
62361,-0.73
62375,-64.29
62388,59.71
62401,3.04
62415,-61.50
62428,60.45
62441,3.03
62455,-62.05
62468,54.91
62481,5.86
62495,-54.33
62508,39.80
62521,16.01
62535,-64.96
62548,108.21
62561,-74.94
62575,-101.68
62588,156.81
62601,31.54
62615,-94.73
62628,-3.26
62641,21.98
62655,-35.06
62668,44.24
62681,0.97
62695,-47.32
62708,71.72
62721,6.30
62735,-81.00
62748,37.88
62761,5.64
62775,-50.78
62788,63.32
62801,16.57
62815,-60.57
62828,39.15
62841,6.37
62854,-56.19
62868,43.94
62881,15.54
62895,-52.58
62908,37.19
62921,14.90
62935,-50.55
62948,37.33
62961,12.82
62975,-51.58
62988,36.77
63001,16.70
63014,-53.04
63028,33.12
63041,18.64
63054,-47.33
63068,27.68
63081,19.17
63094,-44.79
63108,25.81
63121,18.48
63134,-45.71
63148,25.82
63161,19.38
63174,-44.57
63188,25.77
63201,21.30
63215,-45.57
63228,22.61
63241,21.03
63254,-45.36
63268,24.50
63281,21.67
63295,-43.34
63308,20.71
63321,22.76
63335,-43.74
63348,21.36
63361,21.35
63374,-44.30
63388,22.41
63401,23.54
63415,-43.11
63428,18.84
63441,23.53
63455,-43.06
63468,18.23
63481,25.02
63495,-42.80
63508,17.94
63521,25.91
63535,-43.33
63548,17.02
63561,25.63
63574,-42.60
63588,15.40
63601,27.80
63614,-40.74
63628,11.11
63641,29.56
63655,-39.70
63668,9.05
63681,30.32
63694,-37.30
63708,6.03
63721,29.78
63735,-34.69
63748,5.99
63761,28.00
63774,-34.38
63788,4.37
63801,29.70
63815,-30.68
63828,2.45
63841,31.39
63854,-64.39
63868,116.74
63881,-95.29
63895,-104.54
63908,131.74
63921,137.85
63935,-91.76
63948,-121.38
63961,-15.55
63974,20.95
63988,90.88
64001,68.64
64015,-69.45
64028,-50.13
64041,10.01
64054,-29.30
64068,22.39
64081,53.12
64095,-34.85
64108,-3.74
64121,33.48
64135,-41.85
64148,-4.45
64161,38.44
64174,-35.11
64188,1.02
64201,39.45
64215,-38.27
64228,-2.50
64241,39.82
64254,-35.54
64268,-3.40
64281,39.66
64295,-37.97
64308,-3.25
64321,34.84
64335,-28.88
64348,-1.90
64361,39.19
64374,-43.38
64388,-4.29
64401,48.15
64415,-34.98
64428,-10.28
64441,40.63
64455,-36.22
64468,-4.02
64481,44.68
64494,-37.79
64508,-10.11
64521,45.88
64534,-36.21
64548,-6.74
64561,45.76
64574,-39.51
64588,-10.80
64601,47.21
64614,-34.39
64628,-9.01
64641,45.73
64654,-37.61
64668,-10.93
64681,46.50
64695,-35.25
64708,-10.26
64721,47.63
64735,-36.72
64748,-12.30
64761,48.42
64775,-37.32
64788,-11.18
64801,50.78
64814,-37.99
64828,-15.47
64841,51.88
64855,-35.11
64868,-16.07
64881,51.64
64895,-37.11
64908,-13.67
64921,52.50
64934,-37.30
64948,-19.34
64961,52.89
64975,-32.70
64988,-15.49
65001,52.25
65015,-36.69
65028,-20.58
65041,52.71
65054,-31.92
65068,-16.56
65081,51.37
65094,-34.03
65108,-21.31
65121,53.59
65134,-30.94
65148,-21.24
65161,53.45
65175,-33.92
65188,-21.40
65201,55.20
65215,-30.82
65228,-23.59
65241,53.22
65255,-30.48
65268,-24.68
65281,56.74
65295,-31.47
65308,-25.57
65321,58.21
65335,-31.38
65348,-29.28
65361,58.51
65375,-27.82
65388,-29.68
65401,58.22
65415,-27.48
65428,-31.07
65441,55.24
65454,-24.74
65468,-29.36
65481,56.14
65495,-23.99
65508,-34.16
65521,54.77
65535,-20.95
65548,-33.40
65561,57.03
65575,-20.99
65588,-38.92
65601,55.41
65615,-15.03
65628,-37.10
65641,54.30
65654,-18.78
65668,-38.06
65681,56.24
65695,-15.95
65708,-41.63
65721,55.90
65735,-13.17
65748,-39.43
65761,53.62
65775,-14.97
65788,-41.91
65801,54.42
65815,-10.67
65828,-42.06
65841,52.11
65854,-7.89
65868,-43.76
65881,50.60
65894,-8.43
65908,-44.73
65921,53.89
65934,-4.66
65948,-46.49
65961,45.20
65974,-2.70
65988,-40.67
66001,48.96
66014,-3.90
66028,-48.92
66041,45.56
66054,1.83
66068,-43.35
66081,45.81
66094,-0.75
66108,-47.56
66121,44.66
66134,3.86
66148,-47.97
66161,43.07
66174,6.26
66188,-47.25
66201,39.87
66214,5.88
66228,-45.80
66241,38.52
66254,9.31
66268,-44.95
66281,34.20
66294,8.31
66308,-42.93
66321,34.27
66335,10.49
66348,-42.22
66361,28.22
66374,13.08
66388,-36.90
66401,23.12
66415,11.96
66428,-37.80
66441,26.48
66454,14.18
66468,-47.95
66481,54.68
66495,-13.45
66508,-84.71
66521,159.16
66535,-73.16
66548,-123.04
66561,117.11
66575,84.62
66588,-73.84
66601,-40.05
66615,-19.56
66628,-14.59
66641,81.68
66654,37.32
66668,-62.55
66681,-2.54
66694,3.52
66708,-39.01
66721,32.56
66735,28.13
66748,-36.05
66761,20.14
66775,16.75
66788,-43.66
66801,16.35
66815,19.87
66828,-37.05
66841,20.34
66854,21.13
66868,-38.68
66881,17.73
66894,19.58
66908,-37.61
66921,17.08
66935,20.94
66948,-38.21
66961,16.25
66974,22.57
66988,-38.25
67001,14.69
67014,23.42
67028,-36.72
67041,13.86
67054,22.93
67068,-37.66
67081,13.51
67095,24.70
67108,-37.25
67121,11.82
67135,24.47
67148,-35.56
67161,11.95
67174,24.92
67188,-37.35
67201,10.54
67214,25.67
67228,-35.41
67241,10.72
67255,25.68
67268,-36.14
67281,9.53
67294,25.88
67308,-35.32
67321,8.56
67334,27.77
67348,-35.40
67361,7.51
67374,28.11
67388,-36.85
67401,8.25
67414,29.33
67428,-36.53
67441,6.17
67454,28.35
67468,-32.23
67481,5.27
67495,27.83
67508,-35.98
67521,6.32
67534,30.77
67548,-35.22
67561,4.69
67574,30.15
67588,-35.54
67601,4.53
67614,31.87
67628,-35.59
67641,4.01
67655,30.98
67668,-36.01
67681,4.43
67694,32.15
67708,-34.16
67721,0.64
67734,33.06
67748,-34.89
67761,3.23
67774,34.22
67788,-39.15
67801,1.35
67815,36.94
67828,-33.19
67841,-1.70
67854,28.56
67868,-23.34
67881,-3.74
67894,27.32
67908,-29.09
67921,0.81
67934,31.02
67948,-30.99
67961,0.79
67974,35.22
67988,-36.13
68001,-4.25
68015,35.02
68028,-31.74
68041,-0.21
68054,38.09
68068,-35.04
68081,-6.23
68094,37.50
68107,-33.09
68121,-3.76
68134,39.84
68148,-34.97
68161,-6.44
68174,39.58
68188,-32.44
68201,-5.99
68214,40.11
68228,-36.95
68241,-3.91
68254,43.41
68268,-36.61
68281,-11.31
68294,43.66
68308,-30.90
68321,-7.67
68334,41.55
68348,-35.52
68361,-9.84
68374,42.94
68388,-31.86
68401,-9.52
68414,42.40
68428,-32.73
68441,-9.64
68454,43.69
68468,-35.47
68481,-11.39
68495,46.62
68508,-32.87
68521,-12.25
68534,46.16
68548,-34.56
68561,-14.39
68574,49.05
68588,-34.63
68601,-13.97
68615,50.44
68628,-35.95
68641,-17.22
68654,53.24
68668,-35.10
68681,-17.83
68695,53.47
68708,-35.69
68721,-18.98
68734,52.07
68748,-30.46
68761,-18.45
68774,48.26
68788,-32.46
68801,-18.63
68815,52.34
68828,-29.92
68841,-21.70
68854,50.14
68868,-29.50
68881,-22.21
68894,52.65
68908,-29.10
68921,-24.18
68934,52.66
68948,-27.19
68961,-25.41
68974,51.58
68988,-24.64
69001,-28.12
69015,51.02
69028,-23.25
69041,-25.13
69054,51.19
69068,-26.27
69081,-30.61
69094,54.11
69108,-19.66
69121,-29.39
69135,48.85
69148,-21.50
69161,-31.93
69174,54.13
69188,-18.89
69201,-34.35
69214,51.61
69228,-17.43
69241,-37.30
69254,61.04
69268,-22.08
69281,-46.34
69294,62.74
69308,-10.16
69321,-42.21
69334,52.07
69348,-18.17
69361,-39.52
69374,56.25
69387,-11.06
69401,-36.10
69414,40.84
69428,-9.24
69441,-24.55
69454,35.38
69468,-16.53
69481,-25.04
69494,44.57
69508,-13.50
69521,-34.04
69534,46.21
69548,-5.17
69561,-39.50
69574,40.25
69588,-6.96
69601,-36.43
69614,45.35
69628,-1.86
69641,-39.83
69654,39.28
69668,-2.03
69681,-38.10
69694,40.05
69708,-2.47
69721,-38.95
69734,40.91
69748,1.93
69761,-40.22
69774,36.72
69788,1.01
69801,-39.18
69814,38.21
69828,3.32
69841,-40.71
69854,35.32
69868,6.05
69881,-39.50
69894,31.00
69908,7.96
69921,-39.23
69934,34.22
69948,6.40
69961,-43.03
69974,33.73
69987,9.17
70001,-41.44
70014,35.04
70028,8.61
70041,-44.28
70054,28.77
70068,14.15
70081,-38.03
70094,26.59
70108,11.60
70121,-39.99
70134,25.07
70148,15.56
70161,-39.00
70174,25.05
70188,13.39
70201,-39.13
70214,23.77
70228,16.45
70241,-38.28
70254,20.08
70268,18.72
70281,-37.51
70294,17.46
70308,18.06
70321,-34.33
70334,17.38
70348,17.47
70361,-35.15
70374,16.73
70388,18.78
70401,-35.20
70414,15.86
70428,19.30
70441,-35.49
70454,16.30
70468,20.29
70481,-36.50
70494,15.28
70508,21.38
70521,-36.86
70534,16.66
70548,19.92
70561,-38.30
70574,17.28
70588,23.00
70601,-35.90
70614,9.56
70628,21.95
70641,-29.13
70654,10.48
70668,17.60
70681,-29.68
70694,11.99
70708,19.88
70721,-34.07
70734,11.81
70748,24.45
70761,-33.34
70774,9.45
70788,22.63
70801,-34.63
70814,10.48
70828,25.86
70841,-34.32
70854,8.44
70868,24.33
70882,-33.77
70895,10.91
70908,25.33
70921,-36.78
70934,8.63
70948,26.48
70961,-33.99
70974,9.09
70988,26.15
71001,-35.14
71014,7.80
71028,26.65
71041,-34.82
71054,7.53
71068,28.57
71081,-34.34
71094,5.20
71108,27.36
71121,-32.99
71134,5.97
71148,29.07
71161,-35.48
71174,4.97
71188,30.51
71201,-34.16
71214,3.39
71228,29.45
71241,-33.07
71254,4.85
71268,29.36
71281,-34.23
71294,3.11
71308,30.94
71321,-33.61
71334,2.78
71348,30.83
71361,-33.15
71374,2.07
71388,31.92
71401,-34.37
71414,0.97
71428,33.93
71441,-34.12
71454,-0.01
71468,33.61
71481,-33.49
71494,0.32
71508,33.97
71521,-34.63
71534,-0.93
71548,35.34
71561,-32.59
71574,-2.33
71588,34.26
71601,-33.07
71614,-1.36
71627,35.41
71641,-32.80
71654,-3.83
71667,36.61
71681,-32.72
71694,-3.80
71708,35.36
71721,-32.01
71734,-2.28
71748,36.76
71761,-34.37
71774,-5.58
71788,38.76
71801,-32.13
71814,-5.19
71828,37.72
71841,-32.18
71854,-6.75
71868,38.33
71881,-31.49
71894,-6.65
71908,39.39
71921,-32.78
71934,-8.10
71948,40.46
71961,-31.16
71974,-9.60
71988,41.75
72001,-32.05
72014,-10.74
72028,42.04
72041,-30.68
72054,-11.45
72068,42.45
72081,-30.30
72094,-12.21
72108,42.09
72121,-30.48
72134,-12.14
72148,43.37
72161,-30.36
72174,-13.82
72188,43.82
72201,-27.91
72214,-16.67
72228,42.87
72241,-26.57
72254,-16.19
72268,44.53
72281,-27.89
72294,-17.45
72308,44.70
72321,-26.34
72334,-19.13
72348,45.41
72361,-25.77
72374,-20.25
72387,45.34
72401,-24.15
72414,-20.80
72428,45.84
72441,-24.48
72454,-23.47
72468,46.13
72481,-21.36
72494,-24.02
72508,46.83
72521,-23.09
72534,-25.42
72548,48.82
72561,-22.09
72574,-28.76
72588,50.52
72601,-19.47
72614,-29.58
72628,47.25
72641,-20.14
72654,-28.28
72668,50.78
72681,-19.19
72694,-31.00
72708,47.75
72721,-19.61
72734,-28.22
72748,49.12
72761,-19.22
72774,-30.38
72787,49.28
72801,-17.45
72814,-31.11
72828,46.55
72841,-18.62
72854,-28.23
72868,49.97
72881,-18.61
72894,-31.21
72907,47.10
72921,-16.81
72934,-32.60
72948,50.01
72961,-14.63
72974,-33.70
72987,49.58
73001,-18.59
73014,-36.53
73028,54.75
73041,-11.62
73054,-35.91
73068,39.17
73081,-9.62
73094,-22.27
73107,33.18
73121,-13.56
73134,-22.64
73147,37.37
73161,-12.35
73174,-25.07
73187,39.68
73201,-12.53
73214,-31.00
73227,38.92
73241,-8.77
73254,-27.95
73268,40.84
73281,-10.16
73294,-31.28
73307,36.38
73321,-8.04
73334,-27.96
73347,40.42
73361,-8.10
73374,-34.19
73388,35.59
73401,0.82
73414,-33.55
73428,30.47
73441,1.70
73454,-31.10
73468,32.03
73481,0.67
73494,-34.00
73508,29.63
73521,4.22
73534,-34.55
73548,31.82
73561,6.54
73574,-35.26
73588,23.00
73601,6.91
73614,-28.83
73628,26.62
73641,7.14
73654,-35.07
73668,22.62
73681,10.21
73694,-32.28
73708,23.93
73721,10.95
73734,-33.51
73748,21.26
73761,11.29
73774,-35.20
73788,23.07
73801,14.34
73814,-34.68
73828,19.76
73841,14.24
73854,-35.45
73868,20.09
73881,15.92
73894,-34.13
73908,18.66
73921,15.81
73934,-35.78
73948,18.37
73961,17.09
73974,-32.95
73988,17.34
74001,10.45
74014,-25.08
74027,18.73
74041,-1.31
74054,-14.97
74067,21.10
74081,3.57
74094,-46.00
74108,32.72
74121,24.51
74134,-38.41
74148,14.34
74161,17.86
74174,-38.33
74187,13.13
74201,20.90
74214,-30.46
74228,17.33
74241,20.29
74254,-34.97
74268,10.51
74281,17.39
74294,-32.80
74308,15.38
74321,21.83
74334,-32.72
74348,11.20
74361,19.62
74374,-34.15
74388,15.74
74401,23.20
74414,-37.73
74427,8.57
74441,23.36
74454,-30.00
74468,12.66
74481,21.78
74494,-36.20
74507,10.47
74521,23.71
74534,-33.80
74548,11.08
74561,23.97
74574,-34.90
74588,10.55
74601,24.38
74614,-34.41
74627,9.56
74641,24.66
74654,-34.59
74667,9.65
74681,24.67
74694,-32.04
74707,6.00
74721,25.28
74734,-31.43
74747,8.03
74761,24.35
74774,-33.99
74787,6.73
74801,29.75
74814,-36.37
74827,6.96
74841,28.31
74854,-32.93
74867,4.49
74881,26.95
74894,-33.27
74907,7.27
74921,27.71
74934,-34.39
74947,4.99
74961,28.46
74974,-32.53
74987,5.27
75001,28.15
75014,-34.80
75027,4.84
75041,30.44
75054,-33.77
75067,3.67
75081,29.03
75094,-32.90
75108,3.89
75121,30.08
75134,-34.64
75147,4.07
75161,31.35
75174,-33.65
75187,0.15
75201,31.34
75214,-30.71
75227,1.21
75241,30.85
75254,-33.19
75267,1.74
75281,32.07
75294,-33.96
75308,0.05
75321,33.01
75334,-31.33
75347,0.03
75361,32.63
75374,-33.69
75387,-1.18
75401,33.44
75414,-32.07
75427,0.44
75441,34.65
75454,-35.32
75467,-3.52
75481,37.73
75494,-32.03
75507,-5.12
75521,39.38
75534,-36.09
75548,-5.36
75561,43.89
75574,-37.84
75587,-9.97
75601,48.55
75614,-37.99
75628,-8.72
75641,48.82
75654,-39.99
75668,-13.94
75681,54.45
75694,-41.12
75707,-13.90
75721,58.78
75734,-41.88
75747,-17.35
75761,51.98
75774,-33.44
75788,-12.33
75801,39.61
75814,-27.21
75827,-9.49
75841,42.78
75854,-40.02
75868,-11.41
75881,53.57
75894,-29.92
75908,-17.88
75921,40.32
75934,-30.21
75948,-15.29
75961,46.80
75974,-21.41
75988,-21.34
76001,40.21
76014,-20.76
76028,-23.36
76041,42.39
76054,-18.12
76068,-21.62
76081,42.07
76094,-20.75
76108,-23.18
76121,43.46
76134,-21.64
76148,-22.41
76161,47.63
76174,-23.09
76188,-26.77
76201,45.84
76214,-18.15
76228,-25.45
76241,44.55
76254,-19.44
76267,-26.83
76281,46.15
76294,-18.07
76307,-27.62
76321,46.95
76334,-21.63
76348,-28.19
76361,48.96
76375,-16.87
76388,-26.58
76401,49.12
76414,-35.03
76427,-29.87
76441,68.22
76454,-14.75
76467,-41.29
76480,45.62
76494,-26.94
76507,-29.57
76521,71.98
76534,-28.80
76547,-41.35
76561,69.08
76574,-33.53
76587,-43.04
76601,78.77
76614,-35.32
76627,-44.45
76641,82.41
76654,-31.89
76667,-50.00
76681,78.66
76694,-33.14
76707,-47.93
76721,82.25
76734,-29.40
