Time (ms),EMG Value
2001,-1.79
2014,-1.12
2028,1.87
2041,1.68
2054,-1.20
2068,-0.53
2081,-0.56
2094,0.03
2108,1.06
2121,0.17
2134,-1.50
2148,0.52
2161,0.37
2174,0.66
2188,0.39
2201,-1.53
2214,-1.48
2228,1.90
2241,1.23
2254,-0.51
2268,-0.39
2281,-1.40
2294,0.32
2308,0.93
2321,0.56
2334,-0.82
2347,0.39
2361,0.21
2374,-0.65
2387,-0.48
2401,-0.44
2414,1.44
2427,1.01
2441,-1.24
2454,-1.07
2468,0.92
2481,0.67
2494,-1.23
2508,0.33
2521,0.26
2534,-0.01
2548,1.25
2561,-1.15
2574,-1.55
2588,1.04
2601,0.92
2614,-0.55
2628,1.19
2641,-0.55
2654,-2.19
2668,1.13
2681,0.88
2694,-0.69
2708,0.59
2721,0.64
2734,-1.37
2748,0.60
2761,-0.88
2774,-0.26
2788,1.60
2801,0.72
2814,-1.75
2828,-0.38
2841,0.77
2854,-0.41
2868,1.21
2881,-0.47
2894,-1.07
2908,0.69
2921,0.04
2934,-0.05
2948,0.21
2961,0.26
2974,-0.90
2988,0.34
3001,0.36
3014,-0.27
3027,-0.30
3041,0.20
3054,0.43
3067,0.26
3081,-0.96
3094,0.14
3107,0.94
3120,-0.87
3134,-1.35
3147,1.51
3161,1.68
3174,-1.34
3187,-0.24
3201,-0.74
3214,-1.01
3227,2.24
3241,0.84
3254,-1.74
3267,0.65
3281,-0.69
3294,-0.44
3308,1.34
3321,-0.07
3334,-0.80
3348,0.38
3361,0.34
3374,-1.00
3388,0.50
3401,0.88
3414,-0.82
3428,0.02
3441,0.28
3454,-0.87
3468,0.48
3481,0.76
3494,-0.95
3508,0.86
3521,-0.23
3534,-1.30
3547,0.85
3561,1.18
3574,-1.14
3588,0.33
3601,-0.42
3614,-0.98
3628,1.29
3641,1.33
3654,-1.18
3668,-0.60
3681,-0.04
3694,-0.07
3708,0.82
3721,-0.22
3734,-0.95
3748,1.80
3761,0.13
3774,-2.02
3788,0.00
3801,1.02
3814,0.35
3828,-0.39
3841,-0.12
3854,-0.46
3868,0.93
3881,0.32
3894,-0.99
3908,-0.12
3921,-0.27
3934,-0.35
3948,2.33
3961,0.03
3974,-1.65
3987,-0.93
4001,0.72
4014,0.18
4028,1.61
4041,-0.53
4054,-2.17
4067,1.21
4081,0.80
4094,-0.97
4108,0.34
4121,0.65
4134,-1.14
4148,0.68
4161,-0.33
4174,-0.53
4188,1.06
4201,-0.01
4214,-0.35
4228,-0.05
4241,0.21
4254,-0.94
4267,1.12
4281,-0.25
4294,-0.65
4308,0.21
4321,0.90
4334,-0.41
4348,0.15
4361,-0.24
4374,-0.67
4388,-0.21
4401,0.58
4414,0.74
4428,0.16
4441,-0.46
4454,-0.70
4467,0.47
4481,-0.46
4494,-0.07
4508,0.71
4521,0.70
4534,-1.09
4548,0.60
4561,-0.48
4574,-1.31
4596,1.12
4601,1.50
4614,-0.89
4627,-0.48
4641,0.00
4654,-0.89
4667,1.41
4681,0.04
4694,-0.64
4708,-0.05
4721,0.61
4734,-0.63
4748,0.97
4761,-0.53
4774,-1.58
4787,0.97
4801,1.42
4814,-0.25
4828,-0.44
4841,-1.09
4854,-0.63
4867,1.86
4881,1.13
4894,-1.03
4908,-1.52
4921,-0.02
4934,0.40
4948,1.59
4961,0.34
4974,-1.22
4987,-1.10
5001,0.32
5014,0.28
5028,1.25
5041,0.34
5054,-1.73
5067,-0.21
5081,0.80
5094,-0.32
5107,0.55
5121,0.44
5134,-1.12
5148,0.14
5161,0.58
5174,-0.75
5187,0.37
5201,0.58
5214,-1.02
5228,0.90
5241,-0.14
5254,-1.24
5267,0.85
5281,1.00
5294,-0.53
5307,-0.36
5321,-0.96
5334,0.23
5348,1.21
5361,0.78
5374,-1.24
5387,-0.32
5401,0.19
5414,-0.74
5428,0.72
5441,0.79
5454,-0.14
5468,-0.61
5481,-0.10
5494,-0.43
5507,0.92
5521,0.37
5534,-0.72
5548,-0.66
5561,0.41
5574,0.11
5587,1.03
5601,0.07
5614,-1.24
5628,-0.18
5641,-0.19
5654,-0.11
5667,1.71
5681,0.85
5694,-1.93
5707,-0.82
5721,0.51
5734,-0.05
5748,1.01
5761,0.63
5774,-1.42
5787,0.52
5801,-0.23
5814,-1.09
5827,1.04
5841,1.25
5854,-1.02
5868,-0.39
5881,0.20
5894,-0.62
5908,0.74
5921,0.76
5934,-0.99
5948,0.04
5961,0.43
5974,-0.82
5987,0.40
6001,0.49
6014,-0.19
6027,-0.41
6041,0.15
6054,-0.32
6068,0.87
6081,0.39
6094,-1.47
6108,-0.02
6121,0.82
6134,-0.40
6147,0.48
6161,0.41
6174,-1.11
6187,0.15
6201,0.44
6214,-0.10
6227,-0.30
6241,0.20
6254,-0.31
6268,0.85
6281,0.37
6294,-1.49
6308,-0.02
6321,0.67
6334,0.25
6347,-0.19
6361,0.03
6374,-0.55
6387,0.74
6401,0.42
6414,-1.37
6427,0.05
6441,0.83
6454,-0.42
6467,0.45
6481,0.39
6494,-1.11
6507,0.16
6521,0.60
6534,-0.74
6547,0.37
6561,0.58
6574,-0.87
6587,0.26
6601,0.38
6614,-0.22
6627,-0.38
6641,0.03
6654,0.36
6667,0.21
6681,0.01
6694,-0.92
6708,0.56
6721,0.64
6734,-1.03
6747,0.16
6761,0.67
6774,-0.66
6787,0.35
6801,0.45
6814,-1.00
6827,0.24
6841,0.61
6854,-0.76
6868,0.34
6881,0.56
6897,-0.88
6907,0.26
6920,0.55
6934,-0.85
6947,0.30
6960,0.41
6974,-0.20
6987,-0.38
7001,0.03
7014,0.35
7027,0.20
7041,0.00
7054,-0.92
7067,0.56
7081,0.64
7094,-1.03
7107,0.17
7121,0.67
7134,-0.66
7147,0.35
7161,0.45
7174,-1.00
7187,0.24
7201,0.61
7214,-0.92
7227,0.99
7241,-0.27
7254,-0.61
7267,0.14
7281,0.75
7294,-0.47
7307,0.26
7321,-0.07
7334,-0.57
7347,-0.24
7361,0.63
7374,0.01
7387,0.81
7401,0.10
7414,-1.70
7427,-0.05
7441,0.93
7454,-0.27
7467,0.54
7481,0.40
7494,-1.15
7507,0.12
7521,0.42
7534,-0.10
7547,-0.30
7561,0.05
7574,0.34
7587,0.18
7601,-0.17
7614,-0.28
7627,-0.11
7641,0.27
7654,-0.47
7667,0.75
7681,0.34
7694,-0.64
7707,-0.64
7721,0.32
7734,0.01
7748,1.01
7761,0.13
7774,-1.01
7787,-0.78
7801,0.47
7814,0.24
7827,1.12
7841,0.24
7854,-1.76
7867,-0.18
7881,0.84
7894,-0.30
7907,0.57
7921,0.44
7934,-1.12
7947,0.13
7961,0.57
7974,-0.75
7987,0.37
8001,0.58
8014,-0.87
8027,0.26
8041,0.54
8054,-0.86
8067,0.29
8080,0.57
8094,-0.85
8107,0.29
8120,0.56
8134,-0.85
8147,0.29
8160,0.56
8174,-0.85
8187,0.29
8201,0.56
8214,-0.85
8227,0.29
8241,0.56
8254,-0.85
8267,0.29
8281,0.41
8294,-0.21
8307,-0.39
8321,0.18
8334,-0.29
8347,0.88
8361,0.39
8374,-1.48
8387,-0.02
8401,0.82
8414,-0.40
8427,0.48
8441,0.26
8454,-0.46
8467,-0.52
8481,0.21
8494,-0.19
8507,0.96
8521,0.41
8534,-1.50
8547,-0.05
8561,0.64
8574,0.23
8587,-0.19
8601,0.04
8614,-0.54
8627,0.75
8641,0.27
8654,-0.72
8668,-0.62
8681,0.46
8694,0.13
8707,1.03
8721,0.22
8734,-1.74
8747,-0.15
8761,0.86
8774,-0.29
8788,0.57
8801,0.43
8814,-1.13
8827,0.12
8841,0.57
8854,-0.75
8867,0.37
8881,0.58
8894,-0.87
8907,0.27
8921,0.54
8934,-0.86
8947,0.29
8960,0.56
8974,-0.85
8987,0.29
9001,0.56
9014,-0.85
9027,0.29
9040,0.56
9054,-0.85
9067,0.29
9081,0.56
9094,-0.85
9107,0.29
9121,0.56
9134,-0.85
9147,0.29
9161,0.56
9174,-0.85
9187,0.29
9201,0.56
9214,-0.85
9227,0.14
9241,1.20
9254,-1.52
9268,-0.09
9281,1.12
9294,-0.26
9307,0.12
9321,-0.07
9334,-1.16
9347,0.55
9361,1.01
9374,-0.66
9387,0.14
9401,0.30
9414,-0.98
9427,0.32
9441,0.51
9454,-0.13
9467,-0.37
9481,0.16
9494,-0.32
9507,0.86
9521,0.38
9534,-1.48
9547,-0.02
9561,0.67
9574,0.25
9587,-0.19
9601,0.03
9614,-0.55
9627,0.74
9641,0.42
9654,-1.37
9667,0.06
9681,0.84
9694,-0.42
9707,0.45
9721,0.39
9734,-1.11
9747,0.16
9761,0.60
9774,-0.74
9787,0.37
9801,0.43
9814,-0.23
9827,-0.41
9841,0.16
9854,-0.30
9867,0.88
9881,0.39
9894,-1.47
9907,-0.02
9921,0.82
9934,-0.40
9947,0.48
9961,0.41
9974,-1.11
9987,0.15
10001,0.59
10014,-0.74
10027,0.37
10041,0.58
10054,-0.72
10067,-0.38
10081,1.06
10094,0.16
10107,-0.94
10121,-0.40
10134,-0.11
10147,1.51
10161,0.70
10174,-1.73
10187,-0.47
10201,0.47
10214,0.39
10227,0.06
10241,0.16
10254,-0.58
10267,0.64
10281,0.34
10294,-1.39
10307,0.08
10321,0.71
10334,0.24
10347,-0.22
10361,0.01
10374,-0.56
10387,0.74
10401,0.27
10414,-0.72
10427,-0.61
10441,0.46
10454,0.14
10467,1.04
10481,0.22
10494,-1.74
10507,-0.16
10521,0.70
10534,0.35
10547,-0.11
10561,0.06
10574,-0.57
10587,0.71
10601,0.25
10614,-0.73
10627,-0.62
10641,0.46
10654,0.14
10667,1.04
10681,0.22
10694,-1.74
10707,-0.15
10721,0.86
10734,-0.29
10747,0.56
10761,0.43
10774,-1.13
10787,0.13
10801,0.42
10814,-0.11
10827,-0.30
10841,0.20
10854,-0.31
10867,0.85
10881,0.21
10894,-0.84
10907,-0.70
10920,0.29
10934,0.80
10947,0.39
10961,-0.14
10974,-1.18
10987,0.43
11001,0.68
11014,-0.92
11027,0.25
11040,0.53
11054,-0.04
11067,-0.36
11081,0.05
11094,-0.45
11107,0.83
11121,0.45
11134,-1.39
11147,0.03
11161,0.66
11174,0.37
11187,-0.87
11201,0.69
11214,-0.17
11227,0.19
11241,-0.31
11254,-0.55
11267,0.01
11281,0.77
11294,0.03
11307,-0.06
11320,0.70
11334,-1.22
11347,-0.46
11360,0.40
11374,0.01
11387,0.44
11401,1.34
11414,-1.02
11427,-0.86
11441,-0.33
11454,0.23
11467,0.59
11481,0.49
11494,0.04
11507,-0.38
11521,-0.28
11534,-0.80
11547,0.84
11561,0.81
11574,-1.04
11587,0.07
11601,0.43
11614,-0.04
11627,-0.31
11640,-0.06
11654,0.22
11667,0.15
11681,-0.10
11694,-0.04
11707,-0.71
11721,0.94
11734,0.04
11747,-0.48
11760,0.41
11774,0.06
11787,-1.21
11801,0.58
11814,1.11
11827,-0.68
11841,-0.03
11854,-0.00
11867,-0.32
11881,-0.04
11894,-0.36
11907,1.13
11921,0.52
11934,-0.82
11947,-0.94
11960,0.05
11974,0.92
11987,-0.28
12001,1.16
12014,-0.62
12027,-1.86
12040,0.73
12054,1.38
12067,0.05
12081,-0.76
12094,-1.14
12107,1.03
12121,0.93
12134,-0.46
12147,-0.90
12160,-0.12
12174,0.61
12187,0.49
12201,0.05
12214,-1.07
12227,0.41
12241,0.46
12254,-0.33
12267,-0.44
12280,0.32
12294,0.05
12307,0.27
12321,0.78
12334,-0.45
12347,-1.95
12361,0.43
12374,1.60
12387,-0.13
12401,0.11
12414,-0.11
12427,-1.30
12441,0.34
12454,0.72
12467,0.04
12481,-0.34
12494,0.09
12507,-0.55
12521,1.47
12534,-0.29
12547,-1.83
12561,0.56
12574,1.26
12587,0.07
12601,-0.82
12614,-0.28
12627,-0.29
12641,1.19
12654,0.61
12667,-1.52
12681,-0.20
12694,0.55
12707,0.26
12721,-0.11
12734,0.09
12747,-0.69
12761,1.37
12774,-0.43
12787,-1.12
12801,-0.06
12814,0.89
12827,0.61
12841,-0.10
12854,-1.12
12867,-0.25
12880,1.26
12894,0.16
12907,-1.01
12921,-0.51
12934,0.80
12947,0.23
12961,0.75
12974,-0.27
12987,-1.16
13001,-0.62
13014,0.57
13027,1.00
13041,0.41
13054,-0.24
13067,-1.28
13080,0.39
13093,0.53
13107,-0.25
13120,-0.40
13134,0.17
13147,0.53
13160,0.23
13174,-0.29
13187,-0.44
13201,-0.17
13214,0.17
13227,0.26
13240,0.13
13254,0.12
13267,-0.75
13280,0.59
13294,0.51
13307,-1.18
13321,0.11
13334,0.73
13347,-0.57
13361,0.40
13374,0.45
13387,-1.03
13401,0.21
13414,0.60
13427,-0.77
13441,0.34
13454,0.41
13467,-0.23
13481,-0.41
13494,0.17
13507,-0.30
13520,0.88
13534,0.39
13552,-1.47
13560,-0.02
13574,0.82
13587,-0.40
13600,0.48
13614,0.41
13627,-1.11
13640,0.15
13654,0.44
13667,-0.10
13680,-0.30
13694,0.05
13707,0.33
13721,0.17
13734,-0.17
13747,-0.28
13761,-0.11
13774,0.27
13787,-0.47
13800,0.76
13814,0.50
13827,-1.28
13841,0.03
13854,0.70
13867,-0.55
13880,0.42
13894,0.46
13907,-1.02
13920,0.21
13934,0.59
13947,-0.77
13961,0.34
13974,0.41
13987,-0.23
14000,-0.41
14014,0.17
14027,-0.29
14040,0.88
14054,0.39
14067,-1.47
14081,-0.02
14094,0.82
14107,-0.40
14120,0.48
14134,0.41
14147,-1.11
14161,0.16
14174,0.59
14187,-0.74
14200,0.37
14214,0.43
14227,-0.23
14241,-0.41
14254,0.16
14267,-0.30
14280,0.88
14294,0.24
14307,-0.83
14321,-0.69
14334,0.44
14347,0.16
14360,1.07
14374,0.24
14387,-1.74
14400,-0.16
14414,0.85
14427,-0.29
14441,0.56
14454,0.43
14467,-1.13
14480,0.13
14494,0.57
14507,-0.75
14520,0.37
14534,0.58
14547,-0.87
14560,0.42
14574,-0.10
14587,-0.18
14600,0.67
14614,-0.15
14627,-0.79
14640,-0.21
14654,0.81
14667,0.02
14680,0.62
14694,-0.06
14707,-1.67
14720,0.12
14734,1.07
14747,-0.27
14760,0.45
14774,0.31
14787,-1.19
14801,0.14
14814,0.46
14827,-0.07
14840,-0.28
14854,0.21
14867,-0.32
14880,0.84
14894,0.21
14907,-0.84
14921,-0.70
14934,0.44
14947,0.16
14960,1.07
14974,0.24
14987,-1.73
15001,-0.16
15014,0.85
15027,-0.30
15040,0.56
15054,0.43
15067,-1.13
15080,0.28
15094,-0.07
15107,-0.07
15120,0.75
15134,0.03
15147,-1.45
15160,0.44
15174,1.17
15187,-0.54
15200,0.04
15214,-0.04
15227,-0.39
15241,-0.23
15254,0.44
15267,-0.16
15280,0.84
15294,0.28
15307,-1.56
15321,-0.04
15334,0.68
15347,0.27
15360,-0.17
15374,0.04
15387,-0.55
15400,0.74
15414,0.26
15427,-0.73
15440,-0.62
15454,0.30
15467,0.78
15480,0.36
15494,-0.16
15507,-1.18
15520,0.43
15534,0.53
15547,-0.27
15561,-0.43
15574,0.31
15587,-0.12
15600,0.90
15614,0.25
15627,-1.63
15641,-0.08
15654,0.87
15667,-0.31
15680,0.54
15694,0.26
15707,-0.49
15721,-0.55
15734,0.20
15747,-0.19
15761,0.96
15774,0.41
15787,-1.49
15800,-0.05
15814,0.80
15828,-0.41
15840,0.48
15853,0.26
15867,-0.46
15880,-0.52
15894,0.22
15907,-0.18
15920,0.96
15934,0.41
15947,-1.50
15960,-0.06
15974,0.79
15987,-0.41
16000,0.48
16014,0.42
16027,-1.10
16041,0.16
16054,0.60
16067,-0.74
16080,0.37
16094,0.58
16107,-0.87
16120,0.26
16134,0.54
16147,-0.86
16160,0.29
16174,0.57
16187,-0.84
16200,0.29
16214,0.41
16227,-0.21
16241,-0.39
16254,0.18
16267,-0.30
16280,0.87
16294,0.39
16307,-1.48
16320,-0.02
16334,0.82
16347,-0.40
16361,0.48
16374,0.41
16387,-1.11
16400,0.15
16414,0.59
16427,-0.74
16440,0.37
16454,0.58
16467,-0.87
16480,0.26
16494,0.54
16507,-0.86
16520,0.29
16534,0.57
16547,-0.84
16560,0.29
16574,0.56
16587,-0.85
16600,0.29
16614,0.56
16627,-0.85
16640,0.29
16654,0.56
16667,-0.85
16681,0.29
16694,0.41
16707,-0.20
16721,-0.38
16734,0.18
16747,-0.29
16760,0.88
16774,0.39
16787,-1.48
16801,-0.02
16814,0.82
16827,-0.25
16840,-0.16
16854,1.09
16867,-0.73
16880,-0.40
16894,0.01
16907,-0.57
16920,1.00
16934,0.89
16947,-1.13
16960,-0.19
16974,0.35
16987,-0.71
17001,0.55
17014,0.70
17027,-0.88
17040,0.19
17054,0.48
17067,-0.87
17080,0.31
17094,0.59
17107,-0.83
17120,0.29
17134,0.56
17147,-0.86
17160,0.29
17174,0.56
17187,-0.85
17200,0.29
17214,0.56
17227,-0.85
17240,0.29
17254,0.56
17267,-0.85
17280,0.29
17294,0.56
17307,-0.85
17320,0.29
17334,0.41
17347,-0.21
17360,-0.38
17374,0.18
17387,-0.29
17401,0.88
17414,0.39
17427,-1.32
17440,-0.67
17454,1.49
17467,-0.02
17480,-0.08
17494,-0.17
17507,-0.78
17520,0.14
17534,1.58
17547,-0.62
17561,-0.63
17574,-0.20
17587,-0.55
17601,1.14
17614,0.99
17627,-1.15
17640,-0.26
17654,0.30
17667,-0.72
17680,0.57
17694,0.73
17707,-0.86
17720,0.19
17743,0.32
17747,-0.23
17760,-0.37
17773,0.05
17787,0.37
17800,0.21
17814,0.01
17827,-0.92
17840,0.56
17854,0.49
17867,-0.23
17880,-1.15
17894,0.96
17907,0.28
17920,0.38
17934,-0.31
17947,-1.45
17960,0.55
17974,1.03
17987,0.07
18001,-0.59
18014,-0.16
18027,-0.43
18040,0.97
18054,0.39
18067,-0.76
18080,-0.72
18093,0.23
18107,0.76
18120,0.39
18134,-0.28
18147,-0.37
18160,-0.88
18174,0.82
18187,0.66
18200,-0.40
18214,-0.45
18227,-0.58
18240,1.22
18254,0.67
18267,-0.80
18280,-1.01
18294,0.16
18307,0.14
18320,1.24
18334,0.41
18347,-1.69
18360,-0.21
18374,0.77
18387,-0.34
18400,0.56
18414,0.45
18427,-0.95
18440,-0.50
18454,1.26
18467,-0.22
18480,-0.83
18494,0.67
18507,-0.32
18520,0.33
18534,0.27
18547,-0.94
18560,0.47
18574,0.69
18587,-0.80
18600,-0.54
18614,1.18
18627,-0.36
18640,-0.12
18654,-0.13
18667,0.07
18680,-0.49
18693,0.96
18707,0.63
18720,-1.42
18734,-0.07
18747,-0.20
18760,0.89
18774,0.34
18787,-0.51
18800,-0.44
18813,0.33
18827,-0.23
18840,0.76
18854,0.25
18867,-1.33
18880,-0.56
18894,1.60
18907,0.00
18920,-0.12
18934,-0.23
18947,-0.81
18960,0.14
18974,1.44
18987,0.19
19000,-1.94
19014,-0.05
19027,1.03
19040,0.50
19054,-0.31
19067,-0.41
19080,-0.04
19094,0.31
19107,-0.59
19120,0.59
19134,0.32
19147,-0.50
19160,-0.48
19174,0.22
19187,0.74
19200,-0.40
19214,0.53
19227,-0.56
19240,-0.69
19254,0.80
19267,-0.22
19281,-0.35
19294,0.92
19307,0.41
19320,-1.38
19334,0.10
19347,0.64
19360,0.03
19374,-0.41
19387,-0.15
19400,0.27
19414,0.44
19427,-0.51
19440,-0.20
19454,0.89
19467,-0.15
19480,-1.02
19494,-0.33
19507,0.95
19520,0.24
19534,0.85
19547,-0.97
19560,-0.51
19574,-0.08
19587,-0.46
19600,0.46
19614,1.79
19627,-0.60
19640,-0.79
19654,-0.58
19667,-0.05
19680,0.47
19694,0.56
19707,0.17
19720,-0.29
19734,-0.42
19747,-0.03
19760,-0.51
19774,0.93
19787,0.69
19800,-1.22
19814,0.13
19827,-0.04
19842,0.07
19853,0.81
19867,-0.22
19880,-0.94
19894,-0.28
19907,0.84
19920,0.09
19934,0.67
19947,-0.06
19960,-1.69
19973,0.10
19987,1.06
20000,-0.27
20014,0.45
20027,0.31
20040,-1.18
20054,0.14
20067,0.62
20080,-0.72
20094,0.54
20107,-0.21
20120,0.44
20133,0.11
20147,-1.05
20160,-0.22
20173,1.43
20187,0.46
20200,-1.74
20213,0.05
20227,0.35
20240,0.40
20253,0.75
20267,-0.34
20280,-1.75
20293,0.44
20307,1.21
20320,0.27
20333,-0.46
20347,-0.98
20360,0.12
20373,1.38
20387,0.09
20400,-1.91
20414,0.13
20427,1.34
20440,-0.17
20454,0.20
20467,-0.02
20480,-1.27
20493,0.48
20507,0.21
20520,0.06
20534,0.71
20547,-0.09
20560,-1.54
20573,0.41
20587,1.19
20601,-0.51
20614,0.21
20627,-0.52
20640,-0.36
20654,0.82
20667,0.26
20680,-1.31
20693,0.43
20707,1.08
20720,-0.62
20734,0.01
20747,0.13
20760,-1.01
20774,0.46
20787,0.67
20800,-0.07
20814,-0.43
20827,0.07
20840,-0.38
20854,0.85
20867,0.25
20880,-0.80
20894,-0.67
20907,0.45
20920,0.16
20934,1.06
20947,0.08
20960,-1.09
20974,-0.84
20987,0.47
21000,0.26
21013,1.15
21027,0.26
21040,-1.75
21054,-0.19
21067,0.83
21080,-0.30
21093,0.56
21107,0.43
21120,-1.12
21133,0.28
21147,-0.22
21160,0.57
21173,0.08
21187,-0.35
21200,-0.90
21213,1.02
21227,0.99
21240,-1.17
21254,-0.28
21267,0.38
21280,-0.59
21294,0.63
21307,0.67
21320,-0.97
21333,0.12
21347,0.49
21360,-0.82
21373,0.35
21387,0.60
21400,-0.84
21414,0.28
21427,0.55
21440,-0.86
21454,0.29
21467,0.56
21480,-0.85
21494,0.29
21507,0.56
21520,-0.85
21533,0.29
21547,0.56
21560,-0.85
21573,0.29
21587,0.56
21600,-0.85
21614,0.29
21627,0.56
21640,-0.85
21654,0.29
21667,0.56
21680,-0.85
21694,0.29
21707,0.56
21720,-0.85
21734,0.29
21747,0.56
21760,-0.85
21774,0.44
21787,-0.08
21800,-0.18
21814,0.67
21827,0.00
21840,-1.44
21853,0.46
21867,1.03
21880,0.11
21893,-0.64
21907,-0.27
21920,-0.48
21933,1.03
21947,0.64
21960,-1.34
21974,-0.06
21987,0.71
22000,-0.48
22014,0.46
22027,0.43
22040,-1.08
22053,0.18
22067,0.60
22080,-0.74
22094,0.36
22107,0.57
22120,-0.88
22134,0.26
22147,0.54
22160,-0.86
22174,0.29
22187,0.57
22200,-0.84
22213,0.30
22227,0.56
22240,-0.85
22254,0.29
22267,0.56
22280,-0.85
22293,0.29
22307,0.56
22320,-0.85
22334,0.29
22347,0.56
22360,-0.85
22375,0.29
22387,0.56
22400,-0.85
22414,0.29
22427,0.56
22440,-0.85
22453,0.29
22467,0.56
22480,-0.85
22493,0.29
22507,0.56
22520,-0.85
22533,0.29
22547,0.56
22560,-0.85
22574,0.29
22587,0.56
22600,-0.85
22614,0.29
22627,0.56
22640,-0.85
22654,0.29
22667,0.56
22680,-0.85
22694,0.29
22707,0.56
22720,-0.85
22733,0.29
22747,0.56
22760,-0.85
22773,0.29
22787,0.56
22800,-0.85
22814,0.29
22827,0.56
22840,-0.85
22854,0.29
22867,0.41
22880,-0.21
22894,-0.38
22907,0.18
22920,-0.29
22934,0.88
22947,0.39
22960,-1.48
22974,-0.02
22987,0.82
23000,-0.25
23014,-0.16
23027,1.09
23040,-0.73
23053,-0.40
23067,0.01
23080,-0.57
23093,1.00
23107,0.89
23120,-1.13
23133,-0.19
23147,0.35
23160,-0.71
23173,0.55
23187,0.70
23200,-0.88
23213,0.19
23227,0.48
23240,-0.87
23253,0.31
23267,0.59
23280,-0.83
23293,0.29
23307,0.56
23320,-0.86
23334,0.29
23347,0.56
23360,-0.85
23373,0.29
23387,0.56
23400,-0.85
23414,0.29
23427,0.56
23440,-0.85
23453,0.29
23467,0.56
23480,-0.70
23493,-0.36
23507,1.23
23520,-0.32
23534,-0.91
23547,0.65
23560,-0.30
23574,0.36
23587,0.29
23600,-0.93
23613,0.47
23627,0.68
23640,-0.96
23654,0.10
23667,0.50
23680,-0.74
23693,0.44
23707,0.61
23720,-0.90
23734,0.20
23747,0.51
23760,-0.85
23774,0.32
23787,0.59
23800,-0.84
23814,0.29
23827,0.56
23840,-0.86
23854,0.28
23867,0.56
23880,-0.85
23893,0.29
23907,0.56
23920,-0.85
23933,0.29
23947,0.56
23960,-0.85
23974,0.29
23987,0.56
24000,-0.85
24014,0.29
24027,0.56
24040,-0.85
24054,0.29
24067,0.56
24080,-0.85
24093,0.29
24107,0.56
24120,-0.85
24133,0.29
24147,0.56
24160,-0.85
24173,0.29
24187,0.56
24200,-0.85
24213,0.29
24227,0.41
24240,-0.21
24254,-0.38
24267,0.18
24280,-0.29
24293,0.88
24307,0.39
24320,-1.48
24333,-0.02
24347,0.82
24360,-0.25
24373,-0.16
24387,1.09
24400,-0.73
24414,-0.40
24427,0.01
24440,-0.41
24453,0.35
24467,1.57
24480,-0.75
24493,-0.75
24507,-0.24
24520,-0.38
24533,0.53
24547,1.69
24560,-0.60
24573,-1.46
24587,0.38
24600,-0.01
24614,-0.01
24629,1.13
24640,-0.57
24653,-0.19
24667,0.01
24680,-0.66
24693,0.10
24707,1.52
24720,-0.44
24733,-1.20
24747,0.51
24760,-0.05
24773,-0.12
24787,1.04
24800,-0.43
24814,-0.81
24827,0.72
24840,-0.26
24853,-0.45
24867,0.93
24880,-0.42
24893,0.06
24907,0.14
24920,-0.69
24934,-0.01
24947,1.44
24960,-0.61
24973,-0.54
24987,-0.13
25000,-0.41
25014,0.45
25027,1.63
25040,-0.77
25053,-0.80
25067,-0.43
25080,0.26
25093,-0.12
25107,1.33
25120,-0.03
25133,-0.88
25147,0.20
25160,-0.80
25173,0.32
25187,0.70
25200,-0.35
25214,-0.09
25227,0.97
25240,-0.21
25253,-1.25
25267,-0.40
25280,0.28
25294,1.09
25307,1.29
25320,-0.64
25333,-2.47
25347,0.26
25360,1.01
25373,0.78
25387,0.81
25400,-1.30
25414,-1.28
25427,0.82
25440,0.92
25454,-0.86
25467,0.42
25480,-0.14
25493,0.49
25507,-0.01
25520,-1.21
25534,-0.24
25547,1.72
25560,-0.18
25573,-0.38
25587,-0.30
25600,-0.68
25614,0.31
25627,1.51
25640,0.15
25653,-2.04
25667,-0.11
25680,1.02
25693,0.52
25707,-0.28
25720,-0.23
25734,-0.68
25747,0.98
25760,-0.07
25773,-0.62
25787,0.40
25800,0.20
25814,-1.06
25827,0.78
25840,0.40
25853,-0.10
25867,0.29
25880,-0.56
25893,-0.88
25907,0.17
25920,0.44
25933,0.81
25947,0.94
25960,-0.90
25973,-1.70
25987,-0.39
26000,1.35
26013,0.64
26027,0.80
26040,-0.31
26053,-2.00
26067,0.12
26080,0.48
26093,0.54
26107,0.92
26120,-0.38
26134,-1.15
26147,-0.24
26160,0.20
26173,0.83
26187,1.10
26200,-0.74
26214,-1.63
26227,-0.41
26240,1.30
26253,0.59
26267,0.78
26280,-0.31
26293,-2.00
26307,0.13
26320,0.49
26333,0.55
26347,0.93
26360,-0.22
26374,-1.80
26387,0.27
26400,1.21
26413,-0.41
26427,0.13
26440,0.14
26453,-1.06
26467,0.41
26480,0.79
26493,-0.72
26507,0.26
26520,0.46
26534,-0.93
26547,0.43
26560,-0.06
26573,-0.14
26587,0.69
26600,0.01
26613,-1.44
26627,0.45
26640,1.02
26653,0.10
26667,-0.64
26680,-0.27
26693,-0.48
26707,1.03
26720,0.65
26733,-1.34
26747,-0.06
26760,0.71
26773,-0.48
26787,0.46
26800,0.43
26813,-1.08
26827,0.18
26840,0.60
26854,-0.74
26867,0.37
26880,0.42
26893,-0.23
26907,-0.26
26920,-0.49
26933,0.37
26947,1.41
26960,-0.81
26973,-1.38
26987,0.54
27000,0.73
27013,-0.03
27027,-0.28
27040,0.05
27053,0.21
27067,0.11
27080,-0.80
27093,-0.19
27107,1.14
27120,0.26
27133,-1.58
27147,0.26
27160,1.19
27173,-0.40
27187,0.25
27200,-0.61
27213,-0.48
27227,0.78
27240,0.32
27254,-1.22
27267,0.47
27280,1.07
27293,-0.65
27307,-0.02
27320,0.12
27333,-1.01
27347,0.47
27360,0.84
27373,-0.71
27387,0.41
27400,-0.20
27413,-0.26
27427,0.64
27440,0.02
27453,-1.41
27467,0.49
27480,1.20
27493,-0.53
27507,0.19
27520,-0.54
27533,-0.37
27547,0.81
27560,0.26
27573,-1.30
27587,0.43
27600,0.93
27613,0.03
27627,-0.66
27640,-0.25
27653,-0.45
27667,1.04
27680,0.65
27693,-1.35
27707,-0.06
27720,0.70
27733,-0.48
27747,0.62
27760,-0.21
27774,-0.40
27787,0.71
27800,-0.60
27813,-0.65
27826,0.92
27840,0.64
27853,-1.15
27867,0.17
27880,0.72
27893,-0.74
27907,0.18
27920,0.22
27933,-0.25
27947,-0.26
27960,0.33
27973,-0.24
27987,0.82
28000,0.30
28013,-1.53
28027,-0.02
28040,0.69
28053,0.27
28067,-0.18
28080,0.04
28093,-0.55
28107,0.73
28120,0.41
28133,-1.37
28147,0.05
28160,0.68
28173,0.22
28187,-0.22
28200,0.01
28213,-0.56
28227,0.75
28240,0.43
28253,-1.37
28267,0.06
28280,0.84
28293,-0.42
28307,0.45
28320,0.39
28334,-1.12
28347,0.16
28360,0.60
28373,-0.74
28387,0.38
28400,0.58
28413,-0.87
28427,0.26
28440,0.54
28453,-0.86
28467,0.29
28480,0.56
28493,-0.85
28507,0.30
28520,0.56
28533,-0.85
28547,0.29
28560,0.56
28573,-0.85
28587,0.29
28600,0.56
28614,-0.85
28627,0.29
28640,0.56
28654,-0.85
28667,0.29
28680,0.56
28693,-0.85
28707,0.29
28720,0.56
28733,-0.85
28747,0.29
28760,0.56
28773,-0.85
28787,0.29
28800,0.56
28813,-0.85
28827,0.29
28840,0.56
28854,-0.85
28867,0.29
28880,0.56
28893,-0.70
28907,-0.35
28920,1.23
28933,-0.47
28947,-0.27
28960,-0.03
28973,-0.68
28987,0.92
29000,0.87
29013,-1.11
29027,-0.16
29040,0.37
29053,-0.70
29067,0.55
29080,0.69
29093,-0.88
29107,0.18
29120,0.48
29134,-0.87
29147,0.47
29160,-0.05
29173,-0.15
29187,0.68
29200,0.00
29213,-1.44
29227,0.46
29240,1.18
29253,-0.54
29267,0.03
29280,0.11
29293,-1.04
29307,0.44
29320,0.82
29333,-0.71
29347,0.26
29360,0.45
29373,-0.93
29387,0.27
29400,0.58
29413,-0.82
29426,0.31
29440,0.57
29453,-0.70
29467,-0.36
29480,1.23
29493,-0.48
29507,-0.12
29520,-0.67
29533,-0.00
29547,1.30
29560,0.32
29573,-1.54
29587,-0.63
29600,1.67
29613,0.14
29627,-0.91
29641,0.33
29653,-0.52
29667,0.40
29680,0.46
29693,-0.82
29707,0.46
29720,0.61
29733,-1.02
29747,0.09
29760,0.52
29774,-0.71
29787,0.45
29800,0.62
29813,-0.91
29827,0.20
29840,0.50
29853,-0.85
29867,0.32
29880,0.59
29893,-0.83
29907,0.29
29920,0.56
29934,-0.86
29947,0.28
29960,0.56
29973,-0.85
29987,0.29
30000,0.56
30013,-0.85
30027,0.29
30040,0.56
30053,-0.70
30067,-0.36
30080,1.08
30093,0.33
30107,-1.59
30120,0.27
30133,0.26
30147,0.95
30160,0.11
30174,-1.56
30187,0.15
30200,0.94
30213,-0.51
30227,0.29
30240,0.36
30253,-0.99
30267,0.30
30280,0.65
30293,-0.80
30307,0.28
30320,0.53
30334,-0.72
30347,-0.36
30360,1.24
30373,-0.46
30387,-0.11
30400,-0.67
30413,-0.00
30427,1.29
30440,0.31
30453,-1.69
30467,0.02
30480,1.00
30493,-0.23
30507,-0.35
30520,0.92
30533,-0.70
30547,-0.23
30560,0.15
30573,-0.41
30587,0.26
30600,1.47
30613,-0.63
30627,-1.37
30640,0.32
30653,0.52
30667,-0.04
30680,-0.11
30693,0.38
30707,-0.38
30720,0.56
30733,-0.03
30747,-0.84
30760,-0.35
30773,-0.01
30787,0.89
30800,1.54
30813,-1.22
30827,-1.06
30840,-0.13
30853,-0.23
30867,1.34
30880,0.94
30893,-1.14
30907,-0.99
30920,0.99
30933,-0.27
30947,0.06
30960,0.14
30973,-0.56
30987,0.15
31000,1.46
31013,-0.60
31027,-1.34
31040,0.49
31053,0.03
31067,-0.02
31080,1.09
31093,-0.44
31107,-0.85
31120,0.69
31133,-0.42
31147,0.19
31160,0.26
31173,-0.80
31187,0.63
31200,0.58
31213,-0.22
31227,-1.31
31240,0.74
31253,0.35
31267,-0.15
31280,0.40
31293,-0.16
31307,-1.35
31320,0.79
31333,0.60
31347,0.07
31360,0.47
31373,-1.12
31387,-0.92
31400,1.19
31413,0.11
31427,0.33
31440,0.02
31453,-0.96
31467,-0.17
31480,1.46
31493,-0.36
31507,-1.10
31520,0.57
31533,-0.05
31547,-0.14
31560,1.02
31573,-0.60
31586,-0.17
31600,0.05
31613,-0.63
31626,0.11
31640,1.52
31653,-0.44
31666,-1.21
31680,0.51
31693,-0.06
31706,-0.12
31720,1.04
31733,-0.43
31747,-0.81
31760,0.72
31773,-0.25
31787,-0.45
31800,0.93
31813,-0.27
31827,-0.58
31840,0.82
31853,-0.31
31867,-0.57
31880,0.85
31893,-0.28
31907,-0.55
31920,0.86
31933,-0.29
31947,-0.56
31960,0.85
31974,-0.29
31987,-0.56
32000,0.85
32013,-0.29
32027,-0.56
32040,0.85
32053,-0.29
32067,-0.56
32080,0.70
32093,0.35
32107,-1.24
32120,0.47
32134,0.27
32147,0.03
32160,0.68
32173,-0.92
32187,-0.87
32200,1.11
32213,0.16
32227,-0.37
32240,0.55
32253,0.10
32267,-1.37
32280,0.51
32293,0.37
32307,0.11
32320,0.70
32333,-0.94
32347,-0.90
32360,1.09
32373,0.15
32387,-0.37
32400,0.71
32413,-0.54
32427,-0.69
32440,0.73
32453,0.46
32467,-1.15
32480,0.49
32493,0.24
32506,-0.01
32520,0.65
32533,-0.92
32546,-0.87
32560,1.11
32573,0.01
32587,0.28
32600,0.03
32613,-0.93
32627,-0.14
32640,1.47
32653,-0.36
32667,-1.11
32680,0.55
32693,-0.21
32707,0.50
32720,0.19
32733,-0.18
32747,-0.93
32760,0.77
32773,0.78
32787,-1.16
32800,0.07
32813,-0.08
32827,0.14
32840,0.94
32853,0.01
32867,-1.62
32880,0.44
32893,0.50
32907,0.20
32920,0.49
32934,-0.40
32947,-1.62
32960,0.75
32973,0.78
32987,0.26
33000,0.37
33013,-0.55
33027,-1.71
33040,0.60
33053,1.47
33066,-0.37
33080,0.02
33093,0.01
33106,-1.12
33120,0.56
33133,0.19
33146,-0.02
33160,0.65
33173,-0.10
33187,-1.52
33200,0.60
33213,0.56
33227,0.17
33240,0.43
33253,-0.44
33266,-1.63
33280,0.76
33293,0.79
33307,0.27
33320,0.38
33333,-0.55
33347,-1.71
33360,0.59
33373,1.47
33387,-0.37
33400,0.18
33413,-0.63
33427,-0.45
33440,0.79
33453,0.12
33467,-0.63
33480,-0.07
33493,0.06
33507,0.61
33520,0.98
33534,-0.60
33547,-2.23
33560,0.32
33573,1.71
33586,0.04
33600,0.34
33613,-0.79
33627,-0.70
33640,0.67
33653,0.32
33667,-1.17
33680,0.53
33693,1.11
33707,-0.64
33720,0.13
33734,-0.54
33747,-0.35
33760,0.84
33773,0.27
33786,-1.30
33800,0.43
33813,1.08
33827,-0.62
33840,0.17
33853,-0.51
33867,-0.34
33880,0.99
33893,-0.38
33907,-0.63
33920,0.96
33933,-0.12
33946,-0.53
33960,0.56
33973,0.20
33986,-1.29
34000,0.53
34013,0.36
34026,0.08
34040,0.52
34053,-0.30
34066,-1.58
34080,0.71
34093,0.71
34106,0.22
34120,0.54
34133,-1.17
34147,-1.00
34160,0.99
34173,0.91
34187,-0.97
34200,0.18
34213,0.63
34227,-0.81
34240,0.31
34253,-0.26
34267,-0.20
34280,0.81
34293,0.16
34307,-1.38
34320,0.56
34333,0.30
34347,0.73
34360,-0.26
34373,-0.80
34387,-1.04
34400,1.21
34413,1.27
34426,-1.03
34440,-0.16
34453,-0.39
34467,-0.00
34480,0.99
34493,0.13
34507,-1.53
34520,0.47
34533,0.48
34546,0.17
34560,0.47
34573,-0.41
34586,-1.62
34600,0.60
34613,1.43
34627,-0.41
34640,-0.00
34653,0.01
34666,-1.12
34680,0.42
34693,0.84
34707,-0.69
34720,0.28
34733,0.30
34747,-0.29
34760,-0.41
34773,0.20
34787,-0.27
34800,1.05
34813,-0.25
34826,-0.80
34840,0.51
34853,-0.39
34867,-0.32
34880,1.03
34893,0.48
34907,-1.38
34920,0.23
34933,0.13
34947,0.06
34960,0.64
34973,-0.17
34987,-1.52
35000,0.55
35013,1.31
35027,-0.49
35040,-0.02
35053,0.03
35067,-1.08
35080,0.60
35093,0.20
35107,-0.01
35120,0.65
35134,-0.10
35146,-1.53
35160,0.43
35173,1.20
35187,-0.51
35200,0.05
35213,0.12
35226,-1.04
35240,0.44
35253,0.81
35267,-0.72
35280,0.25
35293,0.45
35306,-0.78
35320,-0.37
35333,1.26
35346,-0.44
35360,-0.24
35373,-0.02
35387,-0.52
35400,0.26
35413,1.54
35426,-0.73
35440,-0.72
35453,-0.22
35467,-0.53
35480,1.33
35493,0.37
35506,-0.46
35520,0.11
35533,-0.27
35546,-1.31
35560,0.74
35573,1.35
35587,-0.55
35600,0.09
35613,-0.61
35626,-0.39
35640,0.83
35653,0.29
35666,-1.29
35680,0.44
35693,1.08
35707,-0.62
35720,0.01
35733,0.13
35747,-1.01
35760,0.46
35773,0.82
35787,-0.56
35800,-0.39
35813,1.12
35827,-0.55
35840,-0.13
35853,-0.65
35867,0.03
35880,1.47
35893,-0.32
35906,-1.02
35920,0.39
35933,0.43
35946,-0.98
35960,0.46
35973,0.87
35986,-0.76
36000,0.23
36013,-0.35
36027,-0.25
36040,0.81
36053,0.18
36066,-1.36
36080,0.42
36093,1.10
36107,-0.44
36120,-0.61
36133,0.81
36147,-0.63
36160,-0.10
36173,0.23
36186,-0.39
36200,0.23
36213,1.44
36227,-0.81
36240,-0.74
36253,-0.20
36266,-0.50
36283,1.20
36293,1.02
36306,-0.99
36320,-0.92
36333,0.96
36346,-0.35
36360,0.01
36373,0.14
36386,-0.69
36400,0.82
36413,0.79
36426,-1.13
36440,-0.14
36453,0.40
36467,-0.53
36480,-0.09
36493,1.37
36507,-0.36
36520,-1.02
36533,0.57
36547,-0.16
36560,-0.26
36573,0.99
36586,-0.38
36600,-0.73
36613,0.77
36627,-0.41
36640,0.16
36653,0.23
36667,-0.82
36680,0.61
36693,0.74
36707,-0.86
36720,-0.63
36733,1.13
36747,-0.35
36760,-0.09
36773,0.05
36786,-0.56
36800,0.19
36813,1.49
36827,-0.73
36840,-0.69
36853,-0.19
36866,-0.51
36880,1.33
36893,0.36
36906,-0.32
36920,-0.38
36933,-0.24
36946,-0.10
36960,-0.08
36973,0.88
36986,-0.43
37000,-0.47
37013,1.06
37026,-0.46
37040,-0.18
37053,-0.07
37066,-0.82
37080,0.84
37093,0.96
37107,-0.79
37120,-0.56
37133,0.37
37146,0.40
37160,-0.36
37173,0.20
37186,-0.89
37200,0.47
37213,0.87
37226,-0.47
37240,-0.42
37253,0.93
37267,-0.61
37280,-0.96
37293,0.84
37307,0.10
37320,-0.17
37333,0.91
37347,-0.53
37360,-0.84
37373,0.74
37386,-0.22
37400,-0.27
37413,0.30
37426,0.40
37440,-0.21
37453,0.26
37467,-1.06
37480,0.40
37493,0.16
37506,0.17
37520,0.77
37533,-0.24
37547,-1.61
37560,-0.30
37573,2.01
37587,0.08
37600,-0.39
37613,-0.51
37626,-0.84
37640,0.32
37653,1.77
37667,-0.41
37680,-1.35
37693,0.38
37706,-0.22
37720,0.59
37733,0.43
37746,-0.79
37760,-0.27
37773,1.28
37786,-0.60
37800,-0.44
37813,-0.06
37827,-0.39
37840,0.43
37853,1.60
37866,-0.79
37880,-0.81
37893,-0.27
37907,-0.37
37920,0.56
37933,1.56
37946,0.05
37960,-2.14
37973,-0.01
37986,0.54
38000,0.57
38013,0.95
38026,-1.04
38040,-1.15
38053,0.95
38067,0.18
38080,-0.27
38093,0.79
38106,-0.52
38119,-0.71
38133,0.85
38146,-0.36
38160,0.16
38173,0.20
38186,-0.68
38200,-0.03
38213,1.42
38226,-0.63
38240,-0.54
38253,-0.13
38266,-0.56
38280,1.09
38293,0.95
38307,-0.99
38320,-0.89
38333,0.99
38346,-0.17
38360,-0.63
38373,0.81
38387,-0.16
38400,-0.39
38413,0.88
38427,-0.42
38440,-0.72
38453,0.80
38466,-0.39
38480,0.17
38493,0.23
38506,-0.67
38520,-0.03
38533,1.41
38546,-0.48
38560,-1.19
38573,0.54
38586,-0.03
38600,-0.11
38615,1.05
38626,-0.44
38640,-0.82
38653,0.71
38666,-0.26
38680,-0.46
38693,0.93
38706,-0.27
38720,-0.58
38733,0.82
38746,-0.31
38760,-0.57
38773,0.85
38786,-0.29
38800,-0.56
38813,0.85
38827,-0.29
38840,-0.56
38853,0.85
38866,-0.29
38880,-0.56
38893,0.85
38906,-0.45
38920,0.08
38933,0.18
38946,-0.67
38960,-0.00
38973,1.44
38986,-0.46
39000,-1.19
39013,0.54
39027,-0.03
39040,-0.11
39053,0.89
39066,0.05
39080,-0.85
39093,-0.34
39106,-0.23
39120,1.33
39133,0.52
39147,-0.81
39160,-1.64
39173,0.97
39186,0.78
39200,0.03
39213,0.41
39227,-1.06
39240,-0.81
39253,1.20
39267,0.15
39280,-0.44
39293,0.67
39306,-0.52
39320,-0.64
39333,0.91
39346,-0.19
39360,-0.51
39373,0.85
39386,-0.32
39400,-0.59
39413,0.84
39427,-0.29
39440,-0.55
39453,0.86
39466,-0.44
39480,0.08
39493,0.02
39506,-0.03
39520,-0.68
39533,1.06
39546,0.09
39560,-0.60
39573,0.36
39586,-0.66
39600,-0.42
39613,1.30
39626,0.01
39640,-0.63
39653,0.57
39666,-0.51
39680,-0.59
39693,0.81
39706,0.48
39720,-1.18
39733,0.46
39746,0.22
39760,-0.01
39773,0.50
39786,-0.43
39800,-0.90
39813,0.06
39826,0.34
39840,0.78
39853,0.96
39867,-0.70
39880,-2.31
39893,0.29
39906,1.72
39920,0.07
39933,0.36
39947,-0.78
39960,-0.71
39973,0.82
39986,-0.33
40000,-0.49
40013,0.91
40026,0.39
40040,-0.58
40053,-0.37
40067,-0.29
40080,0.52
40093,1.17
40106,-0.35
40120,-2.12
40133,0.26
40146,1.59
40160,-0.04
40173,0.33
40186,-0.77
40200,-0.68
40213,0.84
40226,-0.32
40240,-0.49
40253,1.06
40266,-0.10
40280,-0.56
40293,0.53
40306,0.17
40320,-1.30
40333,0.53
40346,0.36
40360,0.09
40373,0.68
40386,-0.94
40400,-0.90
40413,1.09
40427,0.15
40440,-0.37
40453,0.55
40466,0.10
40480,-1.36
40493,0.35
40506,1.02
40520,-0.57
40533,0.31
40546,-0.38
40560,-0.32
40573,0.76
40586,0.17
40600,-1.35
40613,0.59
40626,0.47
40639,0.09
40653,0.56
40666,-1.07
40680,-0.93
40693,1.00
40706,0.73
40720,-0.35
40733,-0.51
40746,0.25
40760,-0.25
40773,0.91
40786,-0.43
40800,-0.83
40813,0.49
40827,0.42
40840,-0.94
40853,0.75
40866,0.30
40880,-0.17
40893,0.43
40906,-1.03
40920,-0.82
40933,1.09
40946,0.91
40960,-1.01
40973,0.29
40986,-0.04
41001,-0.15
41013,0.54
41026,-0.32
41039,-0.81
41053,0.09
41066,0.33
41079,0.75
41093,1.10
41106,-1.36
41120,-1.64
41133,0.67
41147,1.17
41160,-0.51
41173,0.54
41186,-0.15
41200,-0.39
41213,0.40
41226,-0.14
41240,-1.36
41253,0.83
41266,0.72
41280,0.17
41293,0.33
41307,-0.55
41320,-1.69
41333,0.61
41346,1.48
41360,-0.37
41373,0.02
41386,0.01
41400,-1.12
41413,0.41
41426,0.83
41440,-0.69
41453,0.27
41466,0.46
41480,-0.93
41493,0.42
41506,-0.06
41520,-0.15
41533,0.84
41546,-0.64
41560,-0.77
41573,0.99
41586,-0.02
41600,-0.45
41613,0.74
41626,-0.46
41640,-0.64
41653,0.89
41666,-0.21
41680,-0.50
41693,0.86
41706,-0.31
41720,-0.59
41733,0.84
41746,-0.29
41760,-0.56
41773,0.70
41786,0.36
41800,-1.23
41813,0.47
41826,0.27
41840,0.02
41853,0.68
41866,-0.92
41880,-0.88
41893,0.95
41906,0.80
41920,-1.04
41933,0.32
41946,0.01
41960,-0.11
41973,0.56
41986,-0.17
42000,-1.47
42013,0.75
42026,0.69
42040,0.19
42053,0.35
42066,-0.54
42080,-1.68
42093,0.77
42106,0.83
42120,0.30
42133,0.40
42146,-0.55
42160,-1.71
42173,0.59
42186,1.46
42200,-0.38
42213,0.17
42226,-0.63
42240,-0.45
42253,0.95
42266,-0.37
42280,-0.60
42293,0.98
42306,-0.12
42320,-0.53
42333,0.72
42346,-0.45
42360,-0.61
42373,0.76
42386,0.45
42400,-1.18
42413,0.31
42426,0.88
42440,-0.68
42453,0.13
42466,0.28
42480,-0.96
42493,0.56
42506,0.10
42520,-0.09
42533,0.63
42547,-0.08
42560,-1.49
42573,0.46
42586,1.21
42600,-0.51
42613,0.05
42626,0.12
42640,-0.89
42653,-0.21
42666,1.49
42680,-0.18
42693,-0.95
42706,0.54
42719,-0.38
42733,0.50
42746,-0.33
42760,-0.23
42773,0.87
42786,0.13
42800,-1.39
42813,-0.38
42826,1.80
42840,-0.05
42853,-0.38
42867,-0.42
42880,-0.92
42893,1.14
42906,0.44
42920,-0.30
42933,0.37
42946,-0.91
42960,-0.68
42973,1.08
42986,0.78
43000,-1.14
43013,0.27
43026,0.02
43040,-0.07
43053,0.58
43066,-0.16
43079,-1.47
43093,0.58
43106,1.33
43119,-0.49
43133,-0.03
43146,0.02
43160,-0.94
43173,-0.20
43186,1.52
43200,-0.31
43213,-0.28
43226,-0.13
43239,-0.76
43253,1.04
43266,0.24
43280,-0.41
43293,0.39
43306,-0.82
43320,-0.61
43333,1.10
43346,0.76
43360,-1.01
43373,-0.39
43386,0.69
43400,0.31
43413,0.02
43426,-0.74
43439,-1.30
43453,1.37
43466,1.00
43480,-0.07
43493,-0.10
43506,-0.73
43519,-1.53
43533,0.87
43546,1.61
43559,-0.41
43573,0.06
43586,-0.72
43600,-0.47
43613,0.81
43626,0.30
43640,-1.26
43653,0.61
43666,0.44
43680,0.05
43693,0.39
43706,-0.43
43720,-1.60
43733,0.63
43746,1.45
43760,-0.25
43773,-0.65
43786,0.68
43800,-0.74
43813,-0.14
43826,0.25
43840,-0.51
43853,0.90
43867,0.77
43879,-1.03
43893,-0.83
43906,1.06
43920,-0.30
43933,0.01
43946,0.11
43960,-0.56
43973,0.16
43986,1.46
44000,-0.59
44013,-1.34
44026,0.49
44040,0.03
44053,-0.02
44066,1.09
44079,-0.44
44093,-0.84
44106,0.69
44120,-0.27
44133,-0.46
44147,0.93
44160,-0.42
44173,0.07
44186,0.15
44199,-0.84
44213,0.63
44226,0.76
44240,-1.00
44253,0.02
44266,0.45
44279,-0.58
44293,-0.02
44307,0.67
44320,0.17
44333,0.03
44346,-0.64
44360,-1.12
44373,0.47
44386,2.20
44400,-0.24
44413,-1.61
44426,0.01
44440,-0.35
44453,0.91
44466,0.03
44479,-0.01
44493,0.06
44506,0.61
44520,-1.26
44533,-0.28
44546,0.60
44560,-0.04
44573,0.19
44586,1.16
44599,-0.83
44613,-1.31
44626,0.65
44640,0.14
44653,0.12
44666,0.37
44679,0.18
44693,-0.48
44706,0.15
44719,-0.83
44733,-0.27
44746,1.56
44760,-0.11
44773,-0.20
44786,-0.31
44799,-0.88
44813,0.14
44826,1.70
44840,-0.32
44853,-1.06
44866,-0.21
44879,0.56
44893,0.25
44906,0.51
44920,-0.99
44933,-0.63
44947,1.35
44960,0.05
44973,-0.56
44986,-0.17
45000,0.21
45013,0.10
45026,-0.12
45039,-0.24
45053,0.60
45066,0.14
45079,-1.17
45093,0.55
45106,0.97
45120,-0.69
45133,-0.72
45146,0.94
45160,-0.42
45173,0.01
45186,0.19
45200,-0.51
45213,0.29
45226,0.76
45239,0.05
45253,-0.95
45266,-0.04
45279,-0.69
45293,0.81
45306,1.04
45319,-0.51
45333,-0.56
45346,0.82
45360,-0.79
45373,-0.29
45386,0.21
45400,-0.25
45413,0.55
45426,0.85
45440,-0.04
45453,-1.09
45466,-0.13
45480,-0.56
45493,0.19
45506,1.76
45519,-0.10
45533,-1.10
45546,0.23
45560,-0.47
45573,-0.32
45586,1.18
45600,-0.13
45613,-0.61
45626,0.72
45640,-0.38
45653,-0.58
45666,0.88
45679,-0.26
45693,-0.54
45706,0.86
45720,-0.29
45733,-0.57
45746,0.85
45760,-0.29
45773,-0.56
45786,0.85
45800,-0.29
45813,-0.56
45831,0.85
45839,-0.29
45852,-0.56
45866,0.85
45879,-0.29
45893,-0.56
45906,0.85
45919,-0.45
45933,0.24
45946,-0.47
45959,0.01
45973,0.38
45986,0.88
45999,-1.05
46013,-1.01
46026,1.16
46039,0.28
46053,-0.37
46066,0.59
46079,-0.63
46093,-0.67
46106,0.82
46120,0.37
46133,-0.52
46146,-0.39
46159,0.47
46173,-0.13
46186,0.88
46200,-0.52
46213,-0.90
46226,0.63
46240,-0.21
46253,-0.23
46266,1.15
46279,-0.25
46293,-0.76
46306,0.60
46320,-0.41
46333,-0.51
46346,0.98
46360,-0.34
46373,0.11
46386,0.15
46400,-0.72
46413,-0.04
46426,1.42
46440,-0.62
46453,-0.53
46466,-0.13
46479,-0.56
46493,1.09
46506,0.96
46520,-0.99
46533,-0.89
46546,0.98
46559,-0.18
46573,-0.63
46586,0.81
46600,-0.16
46613,-0.39
46627,0.88
46639,-0.42
46653,-0.72
46666,0.80
46679,-0.23
46693,-0.47
46706,0.90
46720,-0.29
46733,-0.59
46746,0.67
46759,0.34
46773,-1.24
46786,0.47
46800,0.27
46813,0.03
46826,0.68
46839,-0.91
46853,-0.87
46866,1.11
46879,0.16
46893,-0.37
46906,0.70
46920,-0.55
46933,-0.69
46946,0.89
46959,-0.33
46973,0.17
46986,0.20
46999,-0.69
47013,-0.03
47026,1.42
47039,-0.47
47053,-1.19
47066,0.54
47079,-0.03
47093,-0.11
47106,1.04
47120,-0.44
47133,-0.82
47146,0.72
47159,-0.26
47173,-0.46
47186,0.93
47199,-0.27
47213,-0.58
47226,0.82
47239,-0.31
47253,-0.57
47266,0.85
47280,-0.29
47293,-0.56
47306,0.85
47319,-0.44
47333,0.09
47346,0.18
47360,-0.67
47373,-0.01
47386,1.43
47400,-0.46
47413,-1.19
47426,0.54
47439,-0.03
47453,-0.11
47466,1.04
47479,-0.44
47493,-0.82
47506,0.71
47519,-0.26
47533,-0.45
47546,0.93
47560,-0.27
47573,-0.58
47586,0.67
47599,0.33
47613,-1.24
47626,0.47
47639,0.27
47653,0.03
47666,0.68
47679,-0.91
47693,-0.87
47706,1.11
47719,0.16
47733,-0.53
47746,1.34
47760,-1.22
47773,-1.07
47786,1.44
47799,0.41
47813,-0.65
47826,0.24
47839,-0.63
47853,-0.33
47866,1.28
47879,-0.11
47893,-0.71
47906,0.45
47920,0.23
47933,-1.20
47946,0.43
47960,0.99
47973,-0.63
47986,0.27
47999,-0.39
48013,-0.31
48026,0.92
48039,-0.47
48053,-0.68
48066,0.97
48079,-0.09
48093,-0.50
48106,0.74
48119,-0.44
48132,-0.46
48146,0.10
48159,1.11
48173,-0.81
48186,-0.09
48199,-0.35
48213,0.17
48226,1.29
48239,-0.60
48253,-1.13
48266,0.67
48279,-0.03
48293,-0.22
48306,0.96
48319,-0.41
48333,-0.73
48346,0.77
48359,-0.26
48373,-0.50
48386,0.89
48400,-0.28
48413,-0.57
48426,0.84
48439,-0.30
48453,-0.56
48466,0.85
48480,-0.29
48493,-0.56
48506,0.85
48520,-0.29
48533,-0.56
48546,0.85
48559,-0.29
48573,-0.56
48586,0.69
48599,0.35
48613,-1.24
48626,0.47
48639,0.27
48653,0.03
48666,0.52
48679,-0.27
48693,-1.55
48706,0.73
48719,0.72
48733,0.22
48746,0.53
48759,-1.17
48772,-1.01
48786,0.99
48799,0.91
48813,-0.96
48826,0.34
48839,-0.01
48853,-0.14
48866,0.69
48879,-0.82
48893,-0.64
48906,0.49
48919,0.82
48933,-0.02
48946,0.13
48960,-1.14
48973,-0.52
48986,1.52
48999,0.13
49013,-0.73
49026,0.42
49039,-0.50
49053,-0.44
49066,0.93
49079,0.48
49093,-1.27
49106,0.37
49119,0.19
49133,0.01
49146,0.55
49159,-0.24
49172,-1.53
49186,0.73
49199,0.71
49213,0.21
49226,0.52
49239,-1.18
49253,-1.01
49266,0.99
49279,0.91
49293,-0.96
49306,0.19
49319,0.63
49333,-0.81
49346,0.31
49359,-0.26
49373,-0.21
49386,0.96
49400,-0.48
49413,-0.55
49426,0.30
49439,0.57
49453,-0.12
49466,0.18
49479,-1.02
49493,-0.44
49506,1.53
49519,0.11
49533,-0.77
49546,0.40
49559,-0.51
49573,-0.44
49586,1.09
49600,-0.16
49613,-0.59
49626,0.60
49639,0.28
49653,-1.25
49666,0.49
49679,0.30
49693,0.04
49706,0.68
49719,-0.92
49733,-0.88
49746,0.95
49759,0.80
49773,-1.04
49786,0.17
49799,0.66
49813,-0.78
49826,0.18
49839,0.39
49853,-0.88
49866,0.42
49879,0.56
49893,-0.16
49906,-0.29
49919,-0.56
49933,0.33
49946,1.41
49960,-0.78
49973,-1.36
49986,0.70
50000,0.25
50013,0.15
50026,0.13
50039,0.70
50053,-1.20
50066,-0.18
50079,-0.20
50093,0.36
50106,1.39
50119,-0.61
50133,-1.18
50146,0.46
50160,0.59
50173,-0.75
50186,-0.21
50200,1.47
50212,-0.43
50226,-0.48
50239,-0.27
50253,-0.73
50266,1.22
50279,0.41
50293,-0.37
50306,0.32
50319,-0.93
50333,-0.67
50346,1.10
50359,0.79
50373,-1.13
50386,0.11
50400,0.66
50413,-0.60
50426,-0.29
50439,0.42
50453,0.32
50466,-0.41
50479,0.24
50493,-0.68
50506,-0.17
50520,1.50
50533,-0.14
50546,-0.99
50559,0.35
50573,-0.57
50586,0.33
50599,0.49
50612,-0.69
50626,0.58
50639,0.62
50653,-1.10
50666,0.14
50679,-0.17
50693,0.13
50706,0.23
50720,0.77
50733,-1.10
50746,-0.18
50760,0.54
50773,-0.22
50786,0.03
50799,1.12
50813,-0.90
50826,-0.56
50839,0.04
50853,-0.40
50866,1.29
50879,0.25
50893,-0.55
50906,0.09
50919,-0.25
50933,-1.12
50946,0.12
50959,2.04
50973,-0.17
50986,-0.63
50999,-0.56
51013,-0.74
51026,0.59
51040,1.19
51053,0.10
51066,-0.21
51079,-1.52
51093,-0.37
51106,1.06
51119,1.77
51133,-0.85
51146,-1.53
51160,0.56
51172,0.11
51186,-0.12
51200,0.93
51213,-0.47
51226,-0.72
51239,0.84
51253,-0.22
51266,-0.52
51279,0.85
51293,-0.31
51306,-0.57
51319,0.85
51333,-0.28
51346,-0.55
51360,0.85
51373,-0.45
51386,0.08
51399,0.17
51413,-0.67
51426,-0.00
51439,1.44
51453,-0.46
51466,-1.19
51479,0.54
51493,-0.03
51506,0.04
51519,0.40
51533,0.24
51546,-0.28
51560,-0.48
51573,-0.32
51586,0.90
51599,-0.32
51613,-0.40
51626,1.07
51640,-0.29
51653,-0.65
51666,-0.19
51679,1.00
51693,-0.53
51706,-0.55
51719,0.26
51733,1.32
51746,-0.82
51759,-0.31
51773,-0.54
51786,0.16
51799,1.43
51813,-0.47
51826,-1.08
51839,0.63
51853,-0.09
51866,-0.26
51879,0.95
51893,-0.40
51906,-0.72
51920,0.78
51933,-0.26
51946,-0.50
51960,0.89
51972,-0.28
51986,-0.57
51999,0.84
52013,-0.30
52026,-0.57
52039,0.85
52053,-0.29
52066,-0.56
52079,0.85
52093,-0.29
52106,-0.56
52119,0.85
52133,-0.45
52146,0.24
52160,-0.47
52173,0.00
52186,0.38
52200,0.88
52213,-1.05
52226,-1.01
52239,1.16
52253,0.28
52266,-0.37
52280,0.59
52293,-0.63
52306,-0.51
52319,0.33
52333,0.55
52346,-0.11
52360,0.11
52373,-0.29
52386,-1.10
52399,1.09
52413,0.59
52426,-0.22
52440,0.24
52453,-1.10
52466,-0.57
52479,0.72
52493,0.97
52506,-0.03
52519,0.04
52533,-1.22
52546,-0.39
52560,0.89
52573,0.84
52586,-0.33
52599,-0.13
52613,-1.09
52626,-0.27
52639,1.71
52653,0.15
52666,-0.85
52679,0.30
52693,-0.56
52706,-0.43
52719,1.13
52733,-0.12
52746,-0.57
52759,0.75
52772,-0.53
52786,0.21
52799,-0.46
52813,0.03
52826,0.40
52839,0.89
52853,-1.20
52867,-0.37
52879,0.49
52892,-0.10
52906,0.19
52919,1.18
52932,-0.96
52946,-0.65
52959,-0.01
52973,-0.24
52986,0.52
53000,1.60
53013,-0.67
53026,-1.49
53039,0.39
53053,0.01
53066,0.01
53079,0.98
53093,0.23
53106,-1.51
53119,0.30
53132,0.28
53146,0.12
53159,0.76
53173,-0.89
53186,-0.89
53199,1.08
53212,0.14
53226,-0.37
53239,0.71
53252,-0.54
53266,-0.69
53279,0.73
53293,0.46
53306,-1.15
53319,0.34
53333,0.89
53346,-0.68
53359,0.28
53373,-0.37
53386,-0.29
53400,0.94
53413,-0.62
53426,0.12
53439,-0.36
53452,0.20
53466,0.43
53479,0.76
53493,-1.20
53506,-1.07
53519,1.22
53532,0.37
53546,-0.16
53559,-0.05
53572,0.02
53586,-0.32
53599,0.40
53613,-0.71
53626,-0.31
53639,1.30
53653,0.61
53666,-1.53
53679,0.02
53693,0.09
53706,0.19
53719,0.94
53733,-0.78
53746,-0.91
53759,1.00
53772,0.08
53786,-0.39
53800,0.72
53813,-0.52
53826,-0.68
53839,0.89
53853,-0.18
53866,-0.48
53879,0.87
53893,-0.31
53906,-0.59
53919,0.83
53933,-0.30
53946,-0.56
53959,0.86
53972,-0.28
53986,-0.55
53999,0.85
54013,-0.29
54026,-0.56
54039,0.85
54052,-0.29
54066,-0.56
54079,0.70
54092,0.35
54106,-1.23
54119,0.47
54132,0.27
54146,0.03
54159,0.68
54172,-0.92
54186,-0.87
54199,1.11
54213,0.16
54226,-0.37
54239,0.70
54253,-0.55
54266,-0.69
54279,0.73
54292,0.46
54306,-1.15
54319,0.49
54333,0.25
54346,-0.00
54359,0.66
54373,-0.92
54386,-0.87
54399,1.11
54413,0.16
54426,-0.37
54439,0.70
54453,-0.55
54466,-0.69
54479,0.88
54493,-0.18
54506,-0.48
54519,0.71
54533,0.33
54546,-1.26
54559,0.45
54573,0.26
54586,0.03
54599,0.53
54613,-0.27
54626,-1.55
54639,0.73
54653,0.72
54666,0.22
54679,0.53
54693,-1.17
54706,-1.01
54719,0.98
54733,0.91
54746,-0.96
54759,0.34
54773,-0.01
54786,-0.14
54799,0.69
54813,-0.82
54826,-0.79
54839,1.13
54853,0.14
54866,-0.24
54879,0.04
54893,0.12
54906,-0.16
54920,-0.31
54933,-0.09
54946,0.07
54959,0.94
54972,-0.58
54986,-0.67
54999,0.85
55013,0.47
55026,-1.34
55039,0.13
55053,0.86
55066,-0.53
55079,0.45
55093,-0.30
55106,-0.18
55119,0.05
55132,0.80
55146,-0.98
55159,0.05
55173,-0.10
55186,0.27
55199,1.04
55212,-0.11
55226,-1.87
55239,0.17
55253,1.25
55266,-0.26
55279,0.40
55292,-0.51
55306,-0.48
55319,0.85
55332,-0.44
55346,-0.46
55359,0.21
55372,1.23
55386,-0.65
55399,-0.86
55413,0.20
55426,0.52
55439,0.80
55453,-1.10
55466,-0.91
55479,1.13
55493,0.90
55506,-1.18
55519,-0.04
55533,0.60
55546,-0.66
55559,0.33
55573,0.45
55586,-0.93
55599,0.49
55613,0.02
55626,0.03
55639,-0.01
55653,0.61
55666,-1.10
55679,0.06
55692,-0.02
55706,0.33
55719,1.21
55733,-0.78
55746,-1.22
55759,0.54
55772,0.69
55786,-0.84
55799,0.43
55813,0.77
55826,-0.84
55839,0.06
55853,0.31
55866,-0.90
55879,0.45
55893,0.75
55906,-0.78
55919,0.24
55933,0.47
55946,-0.76
55959,-0.36
55973,1.26
55986,-0.44
55999,-0.10
56013,-0.67
56026,0.15
56039,0.80
56053,0.34
56066,-0.64
56079,-0.01
56092,-0.79
56106,0.03
56119,0.83
56133,1.31
56146,-1.22
56159,-0.76
56173,0.14
56186,-0.29
56199,1.05
56213,0.74
56226,-1.26
56239,-0.01
56253,-0.18
56266,0.19
56279,0.27
56293,0.76
56306,-1.13
56319,-0.20
56333,0.54
56346,-0.36
56359,0.69
56372,0.45
56386,-1.28
56399,-0.01
56413,0.62
56426,-0.58
56439,0.51
56453,0.59
56466,-0.96
56479,0.16
56492,0.50
56506,-0.68
56519,-0.31
56533,1.27
56546,-0.30
56559,-0.91
56572,0.64
56586,-0.15
56599,-0.29
56613,0.96
56626,-0.56
56639,-0.09
56653,0.10
56666,-0.63
56679,0.08
56693,1.49
56706,-0.61
56719,-0.57
56733,-0.17
56746,-0.43
56759,0.44
56773,1.63
56786,-0.60
56799,-1.44
56813,0.41
56826,0.00
56839,-0.01
56853,1.12
56866,-0.42
56879,-0.69
56893,0.04
56906,0.40
56919,-0.08
56933,0.38
56946,-0.85
56959,-0.40
56973,1.45
56986,0.00
56999,-0.82
57013,0.40
57026,-0.63
57039,0.24
57053,0.43
57066,-0.69
57079,0.61
57092,0.66
57106,-1.08
57119,-0.16
57132,1.11
57146,-1.23
57159,-0.54
57172,1.88
57186,0.08
57199,-0.53
57213,-0.71
57226,-0.84
57239,0.55
57252,2.02
57266,-0.37
57279,-1.35
57292,-0.45
57306,0.54
57319,0.38
57332,0.64
57346,-0.94
57359,-0.65
57373,1.29
57386,0.01
57399,-0.73
57412,0.48
57426,-0.45
57439,-0.27
57453,0.44
57466,0.50
57479,-0.22
57493,0.19
57506,-1.11
57519,0.40
57532,0.18
57546,0.35
57559,0.14
57573,0.44
57586,-1.24
57599,-0.72
57612,0.77
57626,0.93
57639,0.62
57652,-0.75
57666,-1.68
57679,0.04
57692,2.21
57706,-0.10
57719,-0.70
57732,-0.61
57746,-0.67
57759,0.54
57772,1.71
57786,0.17
57799,-2.14
57812,-0.08
57826,0.48
57839,0.57
57852,0.97
57866,-1.02
57879,-0.98
57893,0.31
57906,0.84
57919,0.10
57933,0.22
57946,-1.11
57959,-0.38
57973,0.84
57986,0.79
57999,-0.36
58013,-0.13
58026,-1.08
58039,-0.42
58052,2.20
58066,0.12
58079,-2.37
58093,1.64
58105,1.79
58119,-5.30
58132,2.55
58145,3.17
58159,-3.62
58172,1.06
58186,2.67
58199,-6.42
58212,2.77
58226,5.84
58239,-8.75
58252,2.58
58266,8.31
58279,-12.24
58293,2.06
58306,10.28
58319,-9.01
58332,-2.47
58346,8.15
58359,-2.87
58372,-2.87
58386,2.56
58399,-1.04
58413,-0.28
58426,1.03
58439,0.73
58452,-0.31
58466,-1.41
58479,-0.31
58492,1.57
58506,-0.19
58519,-0.98
58533,0.63
58546,-0.03
58559,-0.18
58572,0.93
58586,-0.52
58599,-0.84
58613,0.75
58626,-0.20
58639,-0.41
58653,0.79
58666,0.37
58679,-1.27
58693,0.43
58706,0.24
58719,0.01
58733,0.68
58746,-1.06
58759,-0.22
58773,0.44
58786,-0.37
58799,0.99
58813,-0.03
58826,-0.43
58839,-0.39
58853,0.60
58866,-0.69
58879,-0.48
58892,1.22
58906,0.76
58919,-1.33
58933,0.06
58946,-0.05
58959,0.03
58973,0.88
58986,-0.72
58999,-0.82
59013,1.05
59026,0.08
59039,-0.42
59053,0.69
59066,-0.53
59079,-0.68
59092,0.90
59106,-0.18
59119,-0.48
59133,0.87
59146,-0.31
59159,-0.59
59172,0.83
59186,-0.30
59199,-0.56
59212,0.86
59226,-0.28
59239,-0.55
59253,0.86
59266,-0.29
59279,-0.56
59292,0.69
59306,0.35
59319,-1.08
59333,-0.18
59346,0.94
59359,0.41
59372,0.12
59386,-1.50
59399,-0.70
59413,1.73
59426,0.47
59439,-0.63
59453,0.25
59466,-0.74
59479,-0.55
59492,1.14
59506,-0.20
59519,0.13
59532,0.09
59546,-0.77
59559,-0.05
59572,1.44
59586,-0.44
59599,-1.16
59613,0.55
59626,-0.03
59639,-0.11
59653,1.04
59666,-0.44
59679,-0.82
59693,0.71
59706,-0.26
59719,-0.45
59733,0.93
59746,-0.27
59759,-0.58
59773,0.67
59786,0.33
59799,-1.24
59812,0.32
59826,0.92
59839,-0.64
59853,0.15
59866,0.29
59879,-0.96
59892,0.40
59906,0.73
59919,-0.62
59933,-0.40
59946,1.15
59959,-0.53
59973,-0.27
59986,-0.00
59999,-0.65
60012,0.93
60026,0.88
60039,-0.96
60052,-0.81
60066,1.04
60079,-0.33
60092,-0.01
60105,0.11
60119,-0.55
60132,0.17
60146,1.47
60159,-0.75
60172,-0.69
60186,-0.19
60199,-0.51
60212,1.18
60226,1.01
60239,-1.15
60253,-0.27
60266,0.29
60279,-0.72
60292,0.41
60306,1.37
60319,-1.54
60332,-0.19
60346,1.04
60359,-0.29
60372,0.13
60386,-0.04
60399,-1.15
60412,0.40
60426,1.65
60439,-1.34
60453,-0.40
60466,1.50
60479,-1.07
60492,-0.23
60506,0.60
60519,-0.50
60532,0.39
60546,0.36
60559,-1.00
60573,0.22
60586,1.39
60599,-1.47
60612,-0.35
60626,1.62
60639,-0.99
60652,-0.36
60666,1.22
60679,-1.20
60692,-0.16
60706,1.55
60719,-1.09
60732,-0.33
60746,1.32
60759,-1.19
60773,-0.27
60786,1.44
60799,-1.11
60812,-0.26
60826,1.41
60839,-1.15
60852,-0.28
60866,1.40
60879,-1.14
60892,-0.27
60906,1.41
60919,-1.14
60932,-0.27
60946,1.41
60959,-1.14
60973,-0.43
60986,2.05
60999,-1.82
61012,-0.65
61026,1.97
61039,-0.55
61052,-0.60
61066,1.43
61079,-2.13
61092,-0.55
61106,3.06
61119,-1.04
61132,-1.13
61146,1.73
61159,-1.52
61173,-1.33
61186,3.22
61199,-0.89
61212,-1.41
61226,1.57
61239,-1.34
61252,-0.23
61266,2.59
61279,-1.66
61292,-1.26
61306,2.08
61319,-1.28
61332,-0.58
61346,2.39
61359,-1.31
61373,-1.27
61386,1.57
61399,0.28
61412,-0.76
61426,1.24
61439,-2.93
61452,-1.03
61465,5.70
61479,-0.62
61492,-3.71
61506,1.83
61519,-1.51
61532,-0.66
61546,3.66
61559,-1.49
61572,-1.58
61586,3.50
61599,-2.74
61613,-2.14
61626,4.35
61639,-1.59
61652,-1.89
61666,3.75
61679,-2.19
61692,-1.80
61706,3.42
61719,-1.27
61732,-1.59
61746,3.35
61759,-2.64
61772,-1.78
61785,4.61
61799,-1.67
61812,-2.35
61826,4.15
61839,-2.89
61852,-2.35
61866,5.41
61879,-1.96
61892,-2.69
61906,4.43
61919,-2.49
61932,-2.42
61946,5.01
61959,-2.19
61972,-2.69
61986,5.38
61999,-2.88
62012,-3.70
62026,6.71
62039,-1.99
62052,-3.76
62066,4.80
62079,-2.38
62092,-2.99
62106,6.82
62119,-2.39
62132,-4.12
62146,4.80
62159,-2.32
62172,-2.35
62186,6.78
62199,-3.37
62212,-4.79
62226,7.12
62239,-1.53
62252,-4.89
62266,6.07
62279,-2.80
62292,-3.59
62306,8.62
62319,-3.42
62332,-5.68
62346,6.51
62359,-2.55
62372,-3.01
62386,7.86
62399,-3.46
62412,-5.56
62426,7.72
62439,-2.61
62452,-4.40
62465,6.98
62479,-2.85
62492,-4.33
62506,8.25
62519,-3.08
62532,-5.19
62545,6.61
62559,-2.83
62572,-3.30
62586,7.81
62599,-3.46
62612,-4.91
62626,7.74
62639,-3.72
62652,-4.45
62666,8.73
62679,-3.27
62692,-5.00
62706,7.86
62719,-3.44
62732,-5.27
62746,9.09
62759,-2.98
62772,-5.35
62785,7.54
62799,-3.19
62812,-4.93
62826,9.87
62839,-3.99
62852,-6.28
62866,8.64
62879,-3.23
62892,-4.58
62906,9.23
62919,-4.15
62932,-5.76
62946,8.97
62959,-3.54
62972,-5.23
62986,9.79
62999,-4.49
63012,-5.95
63026,10.21
63039,-3.68
63052,-6.79
63066,10.98
63079,-4.43
63092,-6.70
63106,10.05
63119,-3.21
63132,-5.46
63146,9.52
63159,-4.51
63172,-7.02
63186,12.16
63199,-4.64
63212,-7.38
63226,11.61
63239,-4.21
63252,-6.74
63266,11.40
63279,-5.04
63292,-7.19
63306,11.78
63319,-4.17
63332,-7.63
63346,12.89
63359,-5.06
63372,-8.20
63386,12.20
63399,-4.35
63412,-7.83
63426,13.86
63439,-5.41
63452,-9.63
63466,13.73
63479,-4.23
63492,-8.14
63506,13.46
63519,-6.00
63532,-9.12
63546,15.43
63559,-4.93
63573,-9.57
63586,13.20
63599,-5.35
63612,-7.80
63626,14.72
63639,-5.71
63652,-9.24
63666,13.84
63679,-5.24
63692,-9.20
63706,15.67
63719,-5.78
63732,-9.86
63746,14.70
63759,-5.44
63773,-8.90
63786,15.72
63799,-6.65
63813,-10.59
63826,16.23
63839,-4.59
63852,-9.91
63866,14.50
63879,-6.68
63892,-9.00
63906,16.92
63919,-5.77
63933,-11.15
63946,15.85
63959,-5.61
63973,-10.60
63986,16.36
63999,-5.25
64013,-10.51
64026,16.08
64039,-5.72
64052,-10.82
64066,16.13
64079,-5.57
64092,-9.89
64106,15.55
64119,-5.89
64133,-10.13
64146,16.71
64159,-5.86
64172,-10.64
64186,15.17
64199,-5.63
64212,-9.63
64226,16.94
64239,-5.83
64252,-11.53
64266,15.71
64279,-5.38
64292,-9.45
64306,15.75
64319,-6.02
64333,-10.37
64346,16.58
64359,-5.82
64372,-10.68
64386,15.90
64399,-6.28
64412,-10.19
64426,18.11
64439,-6.09
64452,-11.60
64466,15.61
64479,-5.99
64492,-9.83
64506,17.40
64519,-5.35
64532,-11.77
64546,15.89
64559,-6.17
64573,-10.49
64586,17.93
64599,-5.59
64612,-11.72
64626,16.40
64639,-5.98
64652,-10.96
64666,17.19
64679,-5.00
64692,-11.78
64706,15.85
64719,-4.67
64732,-10.27
64746,16.30
64759,-6.97
64773,-11.32
64786,17.90
64799,-5.20
64812,-10.64
64826,15.73
64839,-6.63
64852,-10.48
64866,17.24
64879,-5.06
64892,-11.41
64906,16.05
64919,-6.23
64932,-10.63
64945,17.83
64959,-5.77
64972,-11.06
64985,15.76
64999,-6.33
65012,-10.24
65026,17.28
65039,-5.15
65052,-11.51
65066,16.00
65079,-6.23
65092,-10.61
65106,17.85
65119,-5.60
65132,-11.69
65146,16.44
65159,-5.96
65172,-10.96
65186,17.34
65199,-5.65
65212,-11.27
65226,16.87
65239,-5.90
65252,-11.23
65266,17.03
65279,-5.91
65292,-10.53
65306,16.35
65319,-6.18
65332,-10.50
65346,16.94
65359,-5.30
65373,-11.30
65386,15.49
65399,-5.61
65412,-9.41
65426,15.95
65439,-5.92
65452,-10.45
65466,16.44
65479,-5.73
65492,-11.13
65506,16.01
65519,-5.18
65532,-10.21
65546,16.29
65559,-5.70
65573,-10.77
65586,15.22
65599,-4.15
65612,-10.82
65626,15.15
65639,-4.87
65652,-10.58
65666,16.20
65679,-5.29
65692,-10.64
65706,15.63
65719,-5.23
65732,-11.14
65746,15.35
65759,-3.30
65773,-10.33
65786,14.67
65799,-5.75
65812,-10.80
65826,15.76
65839,-3.39
65852,-10.51
65866,13.92
65879,-4.87
65892,-10.01
65906,14.61
65919,-3.43
65932,-10.11
65946,13.93
65959,-5.11
65972,-10.18
65986,15.32
65999,-3.33
66012,-11.28
66026,13.90
66039,-4.19
66052,-9.02
66066,13.99
66079,-4.60
66092,-10.68
66106,14.31
66119,-2.29
66132,-10.54
66146,13.04
66159,-4.35
66172,-10.12
66186,14.51
66199,-2.40
66212,-10.65
66226,12.87
66239,-3.73
66252,-10.84
66266,13.95
66279,-1.16
66292,-10.66
66306,12.51
66319,-4.46
66332,-10.10
66346,15.02
66359,-2.73
66372,-11.09
66386,12.54
66399,-2.78
66412,-10.02
66426,14.22
66439,-3.26
66452,-11.12
66466,12.54
66479,-1.97
66492,-10.68
66506,14.33
66519,-1.90
66532,-13.20
66546,13.12
66559,-0.67
66572,-11.88
66586,14.31
66599,-1.81
66612,-14.07
66626,14.09
66639,0.76
66652,-13.05
66666,13.63
66679,-1.17
66692,-14.32
66706,13.55
66719,1.33
66732,-12.55
66746,11.89
66759,0.84
66772,-13.46
66786,11.03
66799,1.71
66812,-11.33
66826,11.08
66839,-0.04
66852,-12.24
66866,11.13
66879,1.91
66892,-11.16
66906,8.79
66919,1.23
66932,-9.76
66946,8.89
66959,0.90
66972,-10.75
66985,9.38
66999,2.33
67012,-10.35
67026,8.60
67039,-0.24
67052,-8.10
67065,6.01
67079,2.98
67092,-4.57
67106,0.43
67119,2.46
67132,-8.12
67146,12.16
67159,2.57
67172,-26.77
67186,16.36
67199,21.01
67212,-23.63
67226,1.33
67239,7.70
67252,-15.16
67266,11.18
67279,9.03
67292,-16.94
67305,8.31
67319,8.30
67332,-17.30
67345,7.49
67359,7.97
67372,-16.55
67385,9.16
67399,10.11
67412,-19.30
67426,8.56
67439,10.33
67452,-17.39
67465,7.14
67479,9.73
67492,-17.87
67505,6.64
67519,11.80
67532,-18.00
67546,7.38
67559,10.95
67572,-17.09
67585,5.12
67599,8.08
67612,-9.03
67626,1.25
67639,4.31
67652,-4.03
67666,0.18
67679,3.34
67692,-3.08
67705,0.08
67719,3.56
67732,-3.88
67746,0.56
67759,3.67
67772,-8.21
67785,4.83
67799,6.73
67812,-12.08
67826,5.39
67839,8.97
67852,-15.81
67866,3.86
67879,10.71
67892,-12.46
67905,4.01
67919,10.69
67932,-17.48
67946,3.91
67959,11.68
67972,-11.86
67985,2.17
67999,8.64
68012,-7.26
68025,-3.53
68039,3.56
68052,1.24
68066,0.22
68079,-1.02
68092,-0.38
68105,1.26
68119,-0.36
68132,-0.99
68145,0.56
68159,-0.25
68172,-0.21
68185,0.36
68199,0.44
68212,-0.16
68225,0.30
68239,-0.90
68252,-0.46
68265,1.39
68279,-0.02
68292,-0.80
68306,0.30
68319,0.22
68332,-1.05
68345,0.42
68359,1.52
68372,-0.74
68386,-1.51
68399,2.30
68412,-2.01
68426,-0.58
68439,4.84
68452,-4.96
68466,-1.62
68479,9.55
68492,-9.76
68505,-1.51
68519,10.63
68532,-4.60
68546,-3.84
68559,3.70
68572,-0.42
68585,-1.83
68599,1.02
68612,-1.18
68625,0.06
68639,8.47
68652,-9.06
68666,-3.94
68679,12.53
68692,-8.95
68705,-2.56
68719,13.90
68732,-12.90
68745,-3.21
68759,16.79
68772,-11.81
68786,-3.86
68799,15.89
68812,-14.44
68825,-1.88
68839,15.06
68852,-10.94
68866,-3.79
68879,16.13
68892,-12.11
68905,-5.54
68919,15.45
68932,-11.43
68945,-3.47
68959,20.38
68972,-16.00
68985,-4.06
68999,17.19
69012,-21.21
69025,5.15
69039,23.19
69052,-24.44
69066,-0.12
69079,21.22
69092,-23.69
69105,2.76
69119,21.57
69132,-23.57
69145,1.71
69159,23.19
69172,-22.76
69186,-0.36
69199,20.42
69212,-22.26
69226,1.10
69239,22.61
69252,-21.10
69265,-0.40
69279,20.72
69292,-23.24
69306,3.32
69319,21.39
69332,-25.52
69345,2.86
69359,23.07
69372,-24.49
69386,2.00
69399,21.70
69412,-24.60
69425,2.19
69439,23.19
69452,-24.02
69465,0.63
69479,22.18
69492,-22.53
69506,0.03
69519,22.93
69532,-22.21
69545,-1.44
69559,23.09
69572,-21.19
69585,-1.70
69599,22.67
69612,-20.21
69626,-3.11
69639,23.13
69652,-19.44
69665,-4.62
69679,23.51
69692,-17.45
69705,-5.25
69719,21.82
69732,-16.75
69745,-6.47
69759,23.95
69772,-15.82
69785,-8.09
69799,22.40
69812,-15.30
69825,-6.48
69839,23.10
69852,-15.88
69865,-8.25
69879,23.40
69892,-14.89
69906,-8.79
69919,23.77
69932,-14.33
69946,-9.66
69959,23.98
69972,-14.05
69986,-9.97
69999,23.60
70012,-13.78
70025,-10.16
70039,24.52
70052,-13.56
70066,-11.04
70079,23.78
70092,-13.15
70106,-10.73
70119,24.21
70132,-12.22
70146,-12.07
70159,23.51
70172,-11.95
70186,-12.19
70199,24.69
70212,-11.37
70226,-12.94
70239,23.69
70252,-11.67
70266,-11.85
70279,24.21
70292,-12.71
70306,-12.00
70319,25.10
70332,-12.45
70345,-12.01
70359,23.59
70372,-12.73
70385,-11.45
70399,25.45
70412,-12.49
70426,-13.02
70439,24.18
70452,-12.15
70466,-11.80
70479,24.86
70492,-12.46
70505,-12.67
70519,25.13
70532,-13.00
70546,-12.71
70559,25.90
70572,-12.42
70586,-13.00
70599,25.17
70612,-12.77
70626,-12.73
70639,25.65
70652,-12.40
70665,-13.51
70679,26.06
70692,-12.32
70706,-13.39
70719,24.91
70732,-12.44
70746,-12.19
70759,25.79
70772,-12.90
70786,-13.28
70799,25.28
70812,-12.50
70826,-12.57
70839,25.61
70852,-12.68
70865,-12.94
70879,25.39
70892,-12.66
70905,-12.96
70919,26.15
70932,-13.30
70946,-13.36
70959,26.67
70972,-12.89
70986,-12.90
70999,25.37
71012,-13.58
71026,-12.08
71039,26.41
71052,-13.71
71065,-12.21
71079,25.17
71092,-13.82
71106,-11.81
71119,26.72
71132,-13.68
71146,-13.24
71159,25.67
71172,-13.25
71186,-12.07
71199,26.24
71212,-13.63
71226,-12.79
71239,25.89
71252,-13.46
71265,-12.44
71279,26.11
71292,-13.47
71306,-12.56
71319,26.00
71332,-13.51
71346,-12.55
71359,26.03
71372,-13.33
71385,-13.18
71399,26.71
71412,-12.80
71426,-14.38
71439,26.79
71452,-12.25
71466,-14.32
71479,26.52
71492,-12.34
71506,-14.14
71519,26.65
71532,-12.44
71546,-14.33
71559,26.59
71572,-12.17
71585,-14.83
71599,27.31
71612,-12.00
71626,-14.82
71639,26.00
71652,-12.05
71665,-14.25
71679,27.61
71692,-12.09
71705,-15.89
71719,26.51
71732,-11.67
71745,-13.92
71759,26.47
71772,-12.49
71785,-14.17
71799,26.65
71812,-12.50
71826,-14.41
71839,26.59
