TimeStamp,emg1,emg2,emg3,emg4,emg5,emg6,emg7,emg8
1.59101169190344e+15,-12,-3,-2,-3,1,1,-2,-2
1.59101169190344e+15,9,2,1,0,0,0,2,0
1.59101169190344e+15,-18,-3,2,0,0,0,0,-5
1.59101169190344e+15,0,0,0,-1,-2,-2,-2,5
1.59101169190542e+15,1,-1,-1,1,-2,-2,-3,-3
1.59101169190542e+15,2,0,-3,-1,-1,-1,-2,0
1.59101169190642e+15,8,2,1,1,-2,-2,-3,3
1.59101169190642e+15,-7,-1,3,-1,-1,-1,1,-9
1.59101169191245e+15,-2,0,-5,-3,-2,-2,2,7
1.59101169191245e+15,-3,-1,-2,1,0,0,-2,-2
1.59101169192055e+15,5,0,-2,-1,0,0,-1,-2
1.59101169192055e+15,-3,-2,-4,-3,1,1,-2,-6
1.59101169193421e+15,7,0,-1,-1,-3,-3,0,-3
1.59101169193421e+15,-6,-1,0,0,1,1,-2,0
1.59101169194318e+15,-6,-5,-3,-4,-1,-1,-5,-17
1.59101169194318e+15,-1,1,-4,0,0,0,0,4
1.59101169194918e+15,-1,-1,1,-1,-2,-2,3,0
1.59101169194918e+15,0,0,1,-2,-2,-2,-1,1
1.59101169198008e+15,0,-1,-2,2,-2,-2,-3,-1
1.59101169198008e+15,13,4,-1,-2,-1,-1,0,14
1.59101169198208e+15,-1,-1,-2,-1,-2,-2,3,-9
1.59101169198208e+15,-4,-4,-3,-1,-5,-5,-5,-9
1.59101169198816e+15,4,1,-2,0,-1,-1,2,6
1.59101169198816e+15,-1,-2,-1,-1,-2,-2,0,-10
1.59101169203194e+15,1,2,1,3,1,1,1,3
1.59101169203194e+15,3,2,0,0,2,2,0,1
1.59101169204192e+15,2,0,-1,-1,-1,-1,-1,-1
1.59101169204192e+15,6,0,-1,0,-4,-4,-1,0
1.59101169204192e+15,-5,-2,-3,-2,1,1,0,-3
1.59101169204192e+15,3,-1,0,-2,-3,-3,-2,-6
1.59101169204291e+15,-6,0,2,1,2,2,2,0
1.59101169204291e+15,1,0,0,-2,-3,-3,2,0
1.59101169204391e+15,0,0,0,-1,-2,-2,1,-2
1.59101169204391e+15,-2,-2,-1,-2,-1,-1,-1,-5
1.59101169205393e+15,0,-2,-1,-5,-1,-1,-2,-3
1.59101169205393e+15,-1,0,-4,-3,-2,-2,1,10
1.59101169206202e+15,3,0,-1,-1,-1,-1,-2,0
1.59101169206202e+15,-8,-3,-8,-1,0,0,-3,-1
1.59101169206889e+15,-2,-1,-2,-1,-2,-2,-3,1
1.59101169206889e+15,-2,-3,-4,-1,-2,-2,-3,-9
1.59101169207698e+15,-3,-2,1,-2,-4,-4,-2,-7
1.59101169207698e+15,2,0,-2,-1,-1,-1,-2,1
1.59101169210084e+15,-3,0,0,-1,-1,-1,3,-3
1.59101169210084e+15,1,1,-1,0,3,3,-4,1
1.59101169210084e+15,-2,0,1,-4,-3,-3,-1,3
1.59101169210084e+15,8,1,2,0,-3,-3,-2,2
1.59101169211377e+15,2,-1,-2,-1,1,1,-1,-6
1.59101169211377e+15,-12,-1,1,0,0,0,1,0
1.59101169212179e+15,1,0,-3,0,1,1,0,1
1.59101169212179e+15,-8,-2,-2,0,0,0,0,-1
1.5910116921387e+15,-1,-3,1,-3,-2,-2,-3,-14
1.5910116921387e+15,2,-1,-2,-1,-4,-4,-2,-1
1.59101169214473e+15,5,0,1,0,-1,-1,-3,-1
1.59101169214473e+15,-6,-1,-2,-1,-1,-1,1,0
1.59101169216064e+15,1,0,-4,-2,1,1,-4,0
1.59101169216064e+15,-3,-2,-1,-1,0,0,0,-9
1.59101169216164e+15,0,-2,-4,-5,-2,-2,-3,-1
1.59101169216164e+15,-1,0,1,-1,-1,-1,-2,-1
1.59101169217365e+15,2,4,-2,0,1,1,3,14
1.59101169217365e+15,0,0,3,-1,-2,-2,-1,2
1.59101169218258e+15,-2,-1,-1,0,-2,-2,-3,0
1.59101169218258e+15,2,0,5,0,-4,-4,0,-2
1.59101169219758e+15,-4,-2,-12,-2,-2,-2,-1,1
1.59101169219758e+15,-3,0,0,-1,1,1,0,-4
1.59101169219758e+15,5,0,-1,-1,-2,-2,2,1
1.59101169219758e+15,-3,1,-1,-2,3,3,3,1
1.59101169222049e+15,0,-2,2,-2,-3,-3,-8,3
1.59101169222049e+15,-1,-1,-2,0,-2,-2,-3,-2
1.59101169222148e+15,-4,0,-2,0,-1,-1,-1,1
1.59101169222148e+15,0,0,0,-2,-1,-1,-2,2
1.59101169223448e+15,0,0,0,-3,-1,-1,-1,4
1.59101169223448e+15,-6,-1,-1,-2,0,0,1,-4
1.59101169224247e+15,-9,-1,-1,0,-1,-1,1,-1
1.59101169224247e+15,-5,-1,-4,-4,-1,-1,1,0
1.59101169225743e+15,7,0,0,0,-1,-1,-1,-5
1.59101169225743e+15,-1,-1,-1,-1,0,0,-2,-4
1.59101169225838e+15,2,-1,-5,-2,-4,-4,-1,0
1.59101169225838e+15,0,-1,0,-1,-1,-1,-4,-5
1.59101169227932e+15,-10,-4,-3,-1,-4,-4,-2,-5
1.59101169227932e+15,3,-1,-2,-2,-2,-2,0,-4
1.59101169228032e+15,-3,-1,-4,-2,0,0,-1,-1
1.59101169228032e+15,-2,-2,-2,-2,1,1,-3,-4
1.59101169229436e+15,2,0,3,-2,0,0,-3,-4
1.59101169229436e+15,-1,1,1,-1,0,0,1,3
1.5910116923023e+15,-6,-1,2,-2,1,1,-1,-2
1.5910116923023e+15,-5,-1,0,2,-1,-1,-2,-4
1.59101169231722e+15,-1,0,0,1,-3,-3,2,-4
1.59101169231722e+15,0,0,-3,1,1,1,0,-1
1.59101169231823e+15,-2,-1,-1,-2,-1,-1,1,-3
1.59101169231823e+15,4,0,-1,-1,-2,-2,-1,2
1.59101169234016e+15,-5,0,-1,0,-2,-2,5,-1
1.59101169234016e+15,-3,-2,-2,-3,-1,-1,-7,3
1.59101169234016e+15,4,2,7,1,-1,-1,0,5
1.59101169234016e+15,6,-2,-1,0,-2,-2,-3,-12
1.59101169235413e+15,-8,-2,-8,-4,-3,-3,-2,8
1.59101169235413e+15,-5,-2,2,-3,-3,-3,-1,-3
1.59101169236275e+15,1,0,-3,-3,2,2,-2,4
1.59101169236275e+15,-4,-1,0,-1,0,0,-2,-4
1.59101169237772e+15,9,1,2,1,0,0,-4,-4
1.59101169237772e+15,-6,-3,-4,-2,-3,-3,-2,-2
1.59101169237772e+15,4,0,-1,0,-3,-3,-2,6
1.59101169237772e+15,3,2,-4,-2,1,1,4,10
1.59101169239968e+15,-5,-1,0,-2,-1,-1,0,-4
1.59101169239968e+15,3,1,-1,-2,-3,-3,1,2
1.59101169240063e+15,-3,-2,-2,0,0,0,-2,-4
1.59101169240063e+15,-3,-2,-4,-1,-1,-1,-2,-5
1.5910116924137e+15,-11,-2,-1,-2,-2,-2,0,3
1.5910116924137e+15,4,2,1,3,4,4,-3,-1
1.59101169242265e+15,-1,-1,-1,0,-1,-1,-1,-4
1.59101169242265e+15,0,-1,-2,-2,-3,-3,-3,-2
1.59101169243753e+15,-2,0,-2,0,2,2,-1,-2
1.59101169243753e+15,-3,-3,2,-3,-3,-3,-1,-15
1.59101169243753e+15,-1,0,3,-2,-2,-2,-4,-2
1.59101169243753e+15,-8,-1,0,-2,0,0,3,2
1.59101169245959e+15,1,0,0,-1,-2,-2,-1,-2
1.59101169245959e+15,2,-1,-1,-1,0,0,0,-8
1.59101169246059e+15,6,2,1,2,0,0,-1,2
1.59101169246059e+15,-7,-2,1,-2,-1,-1,-2,-3
1.59101169247359e+15,1,0,-2,0,0,0,-1,2
1.59101169247359e+15,3,1,-2,1,2,2,0,2
1.59101169248258e+15,2,-2,-7,-5,-2,-2,0,-8
1.59101169248258e+15,2,1,0,0,-3,-3,-3,7
1.59101169249749e+15,0,-2,-1,-2,-3,-3,-2,-8
1.59101169249749e+15,4,1,-3,-3,-1,-1,-3,4
1.59101169249749e+15,-4,-1,-1,0,-1,-1,-2,-4
1.59101169249749e+15,5,2,2,-1,-1,-1,-2,13
1.59101169252048e+15,1,0,1,-1,-1,-1,-1,2
1.59101169252048e+15,-11,-3,-3,-4,-4,-4,-1,0
1.59101169252745e+15,-5,-1,0,-2,1,1,1,-4
1.59101169252745e+15,10,1,1,1,-2,-2,1,-3
1.59101169253439e+15,-6,-2,-5,-2,-2,-2,0,-2
1.59101169253439e+15,-4,1,4,0,0,0,-1,4
1.59101169254242e+15,-3,-1,-5,-2,0,0,1,2
1.59101169254242e+15,1,-1,-4,-1,1,1,-1,-4
1.59101169256436e+15,3,2,6,0,2,2,-1,-1
1.59101169256436e+15,3,1,-1,-1,-1,-1,-1,2
1.59101169257234e+15,-1,0,1,1,-1,-1,0,-1
1.59101169257234e+15,-3,-1,-7,0,-1,-1,1,1
1.59101169257927e+15,-13,-2,4,3,2,2,0,-12
1.59101169257927e+15,1,1,-3,2,-1,-1,-3,5
1.59101169258028e+15,0,-1,4,-3,-2,-2,-1,-4
1.59101169258028e+15,-6,-1,-4,-2,-1,-1,-1,-2
1.59101169259424e+15,-3,-2,-4,-1,-3,-3,-1,0
1.59101169259424e+15,3,2,1,2,0,0,0,0
1.59101169260221e+15,-6,-1,-2,-1,0,0,-1,-3
1.59101169260221e+15,-1,0,1,-1,-3,-3,-1,-2
1.5910116926172e+15,2,0,-1,-1,-2,-2,1,5
1.5910116926172e+15,1,0,0,-3,0,0,-1,0
1.59101169261816e+15,-2,-2,-1,-2,-1,-1,-3,-12
1.59101169261816e+15,3,4,1,-1,3,3,3,15
1.59101169264011e+15,-9,-3,-2,-2,-4,-4,-2,-5
1.59101169264011e+15,0,0,-4,-1,1,1,1,1
1.59101169264011e+15,-1,-1,1,0,0,0,-6,-4
1.59101169264011e+15,-6,-5,-9,-4,-5,-5,-4,-10
1.59101169267072e+15,1,5,2,5,2,2,1,19
1.59101169267072e+15,-6,-3,0,-4,-3,-3,-1,-8
1.59101169267173e+15,4,0,-2,-1,0,0,0,-2
1.59101169267173e+15,-4,-1,-1,0,-2,-2,-1,-4
1.59101169267694e+15,0,-2,-5,-4,-3,-3,-3,-4
1.59101169267694e+15,0,0,-1,-1,-2,-2,-1,0
1.59101169267783e+15,-5,-1,-3,-2,-4,-4,0,3
1.59101169267783e+15,-6,-1,3,-2,-2,-2,-2,-6
1.59101169269977e+15,11,2,0,1,-2,-2,-1,0
1.59101169269977e+15,-10,-1,-1,1,2,2,-3,-1
1.59101169270077e+15,6,0,-5,-2,-4,-4,-4,6
1.59101169270077e+15,-2,1,1,1,2,2,0,1
1.59101169272271e+15,0,-2,-3,-2,-3,-3,0,-6
1.59101169272271e+15,1,1,2,2,-1,-1,-4,1
1.59101169272372e+15,-8,-1,-2,-2,0,0,1,-2
1.59101169272372e+15,0,-2,-2,-2,-3,-3,-2,-5
1.59101169274596e+15,2,0,-1,-3,-1,-1,0,-3
1.59101169274596e+15,-2,2,6,-1,2,2,3,-2
1.59101169274692e+15,2,1,-8,0,2,2,2,4
1.59101169274692e+15,-1,-2,1,-3,-1,-1,-3,-5
1.59101169275988e+15,-1,-4,-2,-1,-1,-1,-2,-20
1.59101169275988e+15,2,0,0,-3,-2,-2,-2,3
1.5910116927609e+15,2,0,6,0,-2,-2,-2,-4
1.5910116927609e+15,-10,-2,2,-1,-2,-2,-1,-2
1.59101169278285e+15,8,4,2,2,3,3,-2,9
1.59101169278285e+15,3,-1,-5,-2,-2,-2,-2,-3
1.59101169278382e+15,-8,-2,0,0,0,0,-1,-5
1.59101169278382e+15,-1,-1,-5,-2,-2,-2,-1,5
1.59101169281274e+15,-4,-2,-3,-5,-1,-1,-1,-5
1.59101169281274e+15,4,1,-5,0,-4,-4,0,9
1.59101169281374e+15,-1,0,-2,-1,-1,-1,-2,-1
1.59101169281374e+15,2,1,2,-1,-1,-1,0,0
1.59101169281972e+15,3,1,0,-1,1,1,-2,-1
1.59101169281972e+15,-6,-2,-1,-2,-1,-1,-2,-2
1.59101169282072e+15,-1,0,-1,-2,0,0,0,-2
1.59101169282072e+15,10,-1,-4,-5,0,0,-3,1
1.59101169284284e+15,4,1,2,-2,-3,-3,-1,1
1.59101169284284e+15,0,0,-2,0,0,0,-1,-5
1.59101169284367e+15,-5,0,0,0,-1,-1,-1,1
1.59101169284367e+15,2,-2,-3,-1,-3,-3,-3,-5
1.59101169285675e+15,0,2,-2,-2,-1,-1,1,13
1.59101169285675e+15,-5,-2,-1,0,-2,-2,-2,-7
1.5910116928646e+15,2,-1,0,-3,-4,-4,-2,-2
1.5910116928646e+15,4,0,0,0,-1,-1,-2,-3
1.5910116928806e+15,-4,-4,-1,-1,-3,-3,-3,-14
1.5910116928806e+15,0,-1,-3,-4,-3,-3,-1,8
1.59101169288162e+15,-6,-2,-1,-1,0,0,-3,-7
1.59101169288162e+15,-4,-2,1,-1,-2,-2,-3,-4
1.59101169290254e+15,-6,-2,-3,0,-3,-3,-3,-5
1.59101169290254e+15,2,0,-1,0,1,1,-1,-3
1.5910116929035e+15,-1,0,-2,0,-2,-2,-1,2
1.5910116929035e+15,-3,-2,-3,-3,-1,-1,-2,-3
1.59101169291651e+15,6,1,-2,-1,-1,-1,2,4
1.59101169291651e+15,-5,-1,-1,1,1,1,-2,-3
1.59101169292449e+15,0,-2,-6,-5,-3,-3,-1,1
1.59101169292449e+15,1,0,-1,-1,-1,-1,-1,-4
1.59101169294839e+15,-4,-1,-1,0,2,2,-2,-1
1.59101169294839e+15,5,1,3,1,-4,-4,0,-2
1.59101169294839e+15,1,-1,-3,-3,2,2,1,-2
1.59101169294839e+15,-1,-2,-1,-2,-3,-3,-1,-8
1.59101169296266e+15,-1,1,0,-3,-1,-1,1,6
1.59101169296266e+15,-5,-2,-5,-2,-1,-1,-1,-5
1.59101169296362e+15,2,1,1,3,0,0,-4,-1
1.59101169296362e+15,-6,1,-1,1,-1,-1,1,2
1.59101169297662e+15,-4,-2,-7,0,-1,-1,-2,1
1.59101169297662e+15,3,1,-2,-1,2,2,0,2
1.59101169298457e+15,-8,-4,2,-1,-5,-5,-1,-13
1.59101169298457e+15,2,1,-2,0,3,3,-3,-2
1.59101169299953e+15,-4,-2,1,-2,-1,-1,-2,-6
1.59101169299953e+15,1,0,-2,-2,-2,-2,2,5
1.59101169300751e+15,0,-1,-1,-3,-1,-1,-4,-2
1.59101169300751e+15,1,0,-6,-2,-2,-2,0,2
1.59101169303044e+15,-5,0,2,0,1,1,-4,0
1.59101169303044e+15,-1,-1,2,-2,2,2,-2,-8
1.59101169303245e+15,1,0,0,-1,-4,-4,0,4
1.59101169303245e+15,-4,0,1,1,-1,-1,1,1
1.59101169304543e+15,-2,0,-1,-2,-1,-1,-1,-2
1.59101169304543e+15,2,0,-1,0,-2,-2,2,-2
1.5910116930474e+15,-7,-1,-3,-1,-2,-2,-5,4
1.5910116930474e+15,1,1,1,1,2,2,-4,4
1.59101169305937e+15,1,-1,-3,-1,-1,-1,0,-3
1.59101169305937e+15,4,-1,-2,-3,-4,-4,-2,1
1.59101169306835e+15,-4,-1,-1,-3,-1,-1,0,-3
1.59101169306835e+15,-1,0,0,0,-2,-2,2,-1
1.59101169308342e+15,-1,-1,0,-1,-1,-1,-3,-4
1.59101169308342e+15,-4,-1,-2,-2,-1,-1,0,1
1.59101169308929e+15,9,2,0,0,1,1,0,2
1.59101169308929e+15,-2,1,0,0,2,2,1,2
1.59101169310525e+15,3,1,0,-1,1,1,1,-2
1.59101169310525e+15,-1,0,1,-1,-2,-2,0,2
1.59101169310724e+15,7,2,-2,0,0,0,2,4
1.59101169310724e+15,1,-2,-6,-4,-4,-4,0,-4
1.59101169312837e+15,0,-1,-1,0,0,0,-1,-1
1.59101169312837e+15,1,1,-2,-1,-1,-1,0,3
1.59101169312916e+15,3,0,1,-2,-2,-2,1,-4
1.59101169312916e+15,-9,-3,-2,-3,-1,-1,-2,-2
1.59101169314326e+15,0,-1,-2,-2,-3,-3,-1,-2
1.59101169314326e+15,-2,-2,-6,-2,-1,-1,-3,-2
1.59101169314424e+15,-1,-1,0,-4,0,0,-2,-1
1.59101169314424e+15,-2,0,3,0,0,0,-1,-2
1.59101169316517e+15,-2,0,0,1,-3,-3,-1,1
1.59101169316517e+15,-7,-1,1,-1,2,2,0,-6
1.59101169316706e+15,-1,-1,-3,0,-3,-3,-1,4
1.59101169316706e+15,-1,0,-1,-1,-1,-1,-2,1
1.591011693188e+15,-6,-4,-2,0,3,3,-2,-20
1.591011693188e+15,4,2,-1,-1,-3,-3,-1,7
1.591011693189e+15,-3,-1,1,-1,-1,-1,1,-3
1.591011693189e+15,6,1,-2,0,0,0,-4,3
1.59101169320199e+15,2,0,1,-1,-1,-1,-4,-2
1.59101169320199e+15,0,0,-1,1,-1,-1,-2,-1
1.59101169321094e+15,-1,0,-2,0,-2,-2,-1,-1
1.59101169321094e+15,-4,-1,-1,0,-1,-1,1,-5
1.5910116932259e+15,3,1,-2,-2,-2,-2,2,5
1.5910116932259e+15,-3,-4,-5,-4,-2,-2,-4,-5
1.59101169322693e+15,0,2,0,-1,1,1,1,8
1.59101169322693e+15,-3,0,3,-1,-1,-1,1,-1
1.59101169324752e+15,-4,-1,-3,-1,0,0,-1,4
1.59101169324752e+15,-1,-1,-2,-2,-3,-3,0,-2
1.59101169324948e+15,-2,-2,-4,-1,-2,-2,-1,-6
1.59101169324948e+15,2,-1,2,0,-2,-2,0,-9
1.59101169326244e+15,2,4,2,0,-2,-2,3,20
1.59101169326244e+15,-8,-4,-3,-3,-4,-4,-3,-12
1.59101169327646e+15,-5,0,1,-1,0,0,-1,1
1.59101169327646e+15,-3,-1,-1,0,-1,-1,-1,-1
1.59101169328491e+15,1,-1,-4,-1,-5,-5,-1,-3
1.59101169328491e+15,1,0,3,-1,-2,-2,-2,-3
1.59101169329189e+15,0,0,-3,1,-2,-2,-1,0
1.59101169329189e+15,-5,-1,1,-1,-2,-2,-4,0
1.59101169330794e+15,-2,-1,1,-1,1,1,-2,-1
1.59101169330794e+15,-1,0,-3,-2,2,2,1,2
1.59101169330984e+15,-12,-3,-2,-2,-1,-1,-3,-8
1.59101169330984e+15,8,1,-1,-1,-3,-3,0,4
1.59101169332181e+15,2,-1,-1,-1,-2,-2,-7,-3
1.59101169332181e+15,-3,-3,-2,-3,-2,-2,-2,-10
1.59101169332879e+15,-7,-1,-5,-5,-2,-2,1,9
1.59101169332879e+15,-1,-1,-6,1,0,0,-1,-2
1.59101169334574e+15,-3,-1,0,-1,-1,-1,0,-3
1.59101169334574e+15,6,2,1,2,0,0,0,1
1.59101169334676e+15,2,-2,-3,-2,-2,-2,-5,-7
1.59101169334676e+15,-3,-1,0,0,-2,-2,-3,0
1.59101169336768e+15,4,-2,-4,-4,-2,-2,-2,-5
1.59101169336768e+15,-2,0,0,0,-2,-2,0,-1
1.59101169336968e+15,6,1,1,-3,0,0,-2,1
1.59101169336968e+15,-7,-3,-2,-5,0,0,-4,-4
1.59101169338275e+15,-1,0,-2,0,-2,-2,-2,0
1.59101169338275e+15,-10,-3,1,-2,2,2,-1,-12
1.59101169338865e+15,5,1,1,-1,1,1,1,5
1.59101169338865e+15,1,-1,1,-1,-2,-2,1,-4
1.59101169340558e+15,8,2,-5,0,-1,-1,-1,11
1.59101169340558e+15,2,0,-2,-3,-3,-3,-1,5
1.59101169340658e+15,-4,-1,2,-1,-2,-2,-1,-2
1.59101169340658e+15,0,-1,0,-3,0,0,-1,-3
1.59101169342756e+15,-8,-2,-2,-2,-1,-1,-4,-5
1.59101169342756e+15,3,1,-1,0,0,0,1,-1
1.59101169342952e+15,1,-2,-3,-3,-2,-2,-6,-2
1.59101169342952e+15,1,0,-3,-2,-2,-2,-1,4
1.5910116934428e+15,-8,-1,1,-3,0,0,0,-5
1.5910116934428e+15,7,0,-6,-4,-3,-3,-2,0
1.59101169344861e+15,2,1,3,1,1,1,1,-4
1.59101169344861e+15,-1,-1,-5,-2,-2,-2,-2,2
1.59101169346555e+15,0,0,0,1,-4,-4,-1,-3
1.59101169346555e+15,-4,-1,-1,0,-2,-2,-2,0
1.59101169346742e+15,2,0,0,-3,-3,-3,-1,2
1.59101169346742e+15,-6,0,-3,0,2,2,-1,8
1.59101169348763e+15,-9,-4,-4,-4,-1,-1,0,-7
1.59101169348763e+15,1,2,0,0,0,0,-3,10
1.59101169350432e+15,-5,-2,-2,-1,-1,-1,-2,-3
1.59101169350432e+15,-1,1,2,2,2,2,-3,-1
1.59101169350532e+15,-3,0,1,-1,1,1,1,-6
1.59101169350532e+15,1,1,-1,0,1,1,2,4
1.59101169350882e+15,-5,-2,-2,-3,1,1,3,-4
1.59101169350882e+15,2,0,0,-3,-4,-4,-2,-4
1.59101169352577e+15,5,1,-2,-2,-3,-3,0,2
1.59101169352577e+15,-4,-4,-1,-1,-1,-1,-5,-17
1.59101169352777e+15,5,6,-6,0,0,0,5,34
1.59101169352777e+15,-4,-1,-1,-1,-1,-1,1,-2
1.5910116935557e+15,-4,-1,1,-1,-2,-2,-2,0
1.5910116935557e+15,-14,-3,0,-1,-2,-2,1,-7
1.59101169355669e+15,4,1,5,3,4,4,-3,-12
1.59101169355669e+15,4,0,-8,-2,-2,-2,0,3
1.59101169356171e+15,-6,-1,0,-3,0,0,-1,1
1.59101169356171e+15,7,1,-2,-4,-2,-2,0,4
1.59101169356866e+15,-4,-1,0,1,-1,-1,-4,-6
1.59101169356866e+15,-7,-2,-1,-1,-3,-3,-1,-3
1.59101169358562e+15,3,0,-2,1,1,1,0,-1
1.59101169358562e+15,4,-1,-3,-4,-5,-5,-1,5
1.59101169358661e+15,-3,0,-1,-1,-1,-1,-1,7
1.59101169358661e+15,8,1,1,0,-2,-2,0,-1
1.59101169360756e+15,-1,-1,-2,-1,-3,-3,-2,0
1.59101169360756e+15,-8,-2,-2,0,-2,-2,-5,-3
1.59101169360955e+15,-7,-2,1,0,-1,-1,1,-6
1.59101169360955e+15,1,1,1,-2,-2,-2,-3,10
1.59101169362152e+15,1,2,1,2,3,3,0,2
1.59101169362152e+15,-2,0,-2,1,-1,-1,1,-1
1.59101169363053e+15,-4,-2,-1,-2,0,0,-8,-8
1.59101169363053e+15,0,-1,-2,-2,0,0,-1,-8
1.59101169364546e+15,4,3,5,2,1,1,0,5
1.59101169364546e+15,0,0,-4,-4,-5,-5,-1,4
1.59101169364745e+15,2,-2,-2,0,-3,-3,-2,-12
1.59101169364745e+15,-7,-1,0,0,0,0,-1,-6
1.59101169366761e+15,-3,-1,-2,-2,-2,-2,1,-4
1.59101169366761e+15,2,1,0,0,3,3,0,1
1.5910116936696e+15,-6,-3,-6,-3,-3,-3,-2,-4
1.5910116936696e+15,3,1,-1,0,-3,-3,0,5
1.5910116936816e+15,-5,-3,0,-1,0,0,-2,-14
1.5910116936816e+15,2,2,2,1,0,0,-3,5
1.59101169369055e+15,0,-1,0,-2,-5,-5,2,-2
1.59101169369055e+15,1,0,3,1,1,1,-2,-4
1.59101169370551e+15,0,-1,-5,-1,0,0,-1,0
1.59101169370551e+15,-2,-1,0,-1,-1,-1,-3,-5
1.59101169370651e+15,-1,0,-1,-1,-1,-1,-1,-1
1.59101169370651e+15,-12,-3,1,-1,1,1,-1,-5
1.59101169372748e+15,-1,-2,-3,-5,-3,-3,-1,-3
1.59101169372748e+15,-4,-2,0,0,0,0,-1,-13
1.59101169372944e+15,0,1,-5,1,-2,-2,2,15
1.59101169372944e+15,3,-1,-1,-4,-2,-2,-3,-1
1.59101169374144e+15,1,-2,-1,-3,-2,-2,-3,-4
1.59101169374144e+15,-1,0,-2,-2,0,0,1,1
1.59101169375039e+15,1,-2,-5,-1,-1,-1,-1,-6
1.59101169375039e+15,9,0,2,-2,-2,-2,-1,0
1.59101169376535e+15,-8,-1,-4,1,2,2,-4,3
1.59101169376535e+15,-10,-2,-1,-2,0,0,-3,-5
1.59101169376734e+15,10,3,0,1,-2,-2,-3,7
1.59101169376734e+15,-5,-3,-5,-3,-2,-2,-5,-2
1.59101169378729e+15,-1,-1,-2,3,0,0,1,-5
1.59101169378729e+15,0,0,-1,-3,-3,-3,1,9
1.59101169378928e+15,-3,-1,0,-1,0,0,-3,-2
1.59101169378928e+15,-5,-1,-3,-1,0,0,2,-7
1.59101169380125e+15,9,1,2,-2,-5,-5,-4,1
1.59101169380125e+15,-10,-3,-2,-3,1,1,-2,-7
1.59101169381023e+15,2,1,0,1,-2,-2,3,-1
1.59101169381023e+15,3,0,-3,0,-1,-1,-4,-1
1.59101169382519e+15,0,-1,-2,-2,-1,-1,2,-5
1.59101169382519e+15,0,-1,-1,1,-1,-1,-2,-4
1.59101169382718e+15,-6,-2,0,-3,-1,-1,0,-9
1.59101169382718e+15,2,0,0,-1,-1,-1,1,-5
1.59101169384815e+15,-7,-1,-2,-1,2,2,-1,1
1.59101169384815e+15,1,0,1,-1,-2,-2,0,1
1.59101169384912e+15,4,0,-4,-1,0,0,-1,-4
1.59101169384912e+15,-3,-1,-3,-1,-3,-3,-1,1
1.59101169386109e+15,-2,0,0,0,-2,-2,2,3
1.59101169386109e+15,10,2,-1,-1,-1,-1,-1,2
1.5910116938701e+15,-10,-2,0,-3,-4,-4,0,4
1.5910116938701e+15,-2,-1,-5,-2,-1,-1,-1,1
1.59101169388503e+15,-1,-1,-3,-3,-2,-2,-2,-2
1.59101169388503e+15,8,1,3,-1,0,0,-2,-1
1.59101169388702e+15,-2,-1,1,1,-2,-2,-1,-10
1.59101169388702e+15,-2,2,0,0,0,0,0,9
1.59101169390896e+15,2,0,2,-3,-2,-2,1,-6
1.59101169390896e+15,-5,-1,-1,-2,-1,-1,-3,-2
1.59101169391398e+15,1,0,-4,-4,-2,-2,-2,5
1.59101169391398e+15,-3,-1,-1,-1,0,0,-3,-3
1.59101169392193e+15,1,-1,-3,0,0,0,-3,-2
1.59101169392193e+15,-2,-1,0,0,-3,-3,-1,1
1.59101169393091e+15,-4,-3,-1,1,0,0,-5,-17
1.59101169393091e+15,-4,-1,-1,-1,-1,-1,0,3
1.59101169394587e+15,0,-2,-1,-2,-1,-1,-3,-2
1.59101169394587e+15,-1,-2,-5,-3,-1,-1,-1,-4
1.59101169394786e+15,-4,1,1,0,2,2,4,-4
1.59101169394786e+15,10,0,-1,-1,-3,-3,-4,0
1.59101169396781e+15,-9,-2,-1,-2,-1,-1,-1,-3
1.59101169396781e+15,-3,-1,0,-1,0,0,-1,-2
1.59101169397579e+15,2,1,2,2,-4,-4,0,3
1.59101169397579e+15,1,0,-1,-1,0,0,2,0
1.59101169398177e+15,-1,-1,-2,-1,-2,-2,-1,3
1.59101169398177e+15,1,0,-1,-2,0,0,-2,5
1.59101169399673e+15,-2,-1,1,-3,0,0,-3,0
1.59101169399673e+15,0,1,3,1,0,0,-1,-5
1.59101169401307e+15,-13,-4,-13,-5,-3,-3,-2,4
1.59101169401307e+15,-3,-1,-1,-2,-1,-1,2,-3
1.59101169401407e+15,5,1,-3,1,0,0,-1,3
1.59101169401407e+15,-3,-3,-1,-3,0,0,-4,-15
1.59101169402703e+15,3,2,2,-3,-1,-1,2,9
1.59101169402703e+15,0,-2,-1,-3,-2,-2,-2,-2
1.59101169404299e+15,-2,-1,-3,-2,0,0,-3,0
1.59101169404299e+15,-5,-2,-3,0,-2,-2,-1,-6
1.59101169405795e+15,6,3,3,3,0,0,2,0
1.59101169405795e+15,0,0,0,-1,-2,-2,-1,0
1.59101169405895e+15,-4,-2,-1,-4,-3,-3,-1,0
1.59101169405895e+15,-1,-1,-2,-2,-1,-1,0,2
1.59101169406493e+15,4,3,6,3,3,3,1,-1
1.59101169406493e+15,-1,-1,-6,-1,-2,-2,-3,1
1.59101169406693e+15,-5,-3,-4,-4,-1,-1,0,-8
1.59101169406693e+15,-2,2,5,2,2,2,-1,1
1.59101169408687e+15,-1,-2,-2,-3,-3,-3,-3,-4
1.59101169408687e+15,0,0,1,2,2,2,0,-8
1.59101169411081e+15,-5,0,-1,2,-1,-1,1,0
1.59101169411081e+15,-3,-3,-3,-3,-3,-3,-3,-7
1.59101169411779e+15,3,0,1,-2,-2,-2,-4,-1
1.59101169411779e+15,-7,-2,-2,-3,-1,-1,-3,-2
1.59101169411979e+15,2,1,-1,1,-2,-2,-1,2
1.59101169411979e+15,-10,-2,-2,-3,-3,-3,2,1
1.59101169412577e+15,0,0,0,2,1,1,-1,-6
1.59101169412577e+15,1,0,0,-1,-1,-1,0,1
1.59101169412676e+15,-3,-1,-2,0,2,2,-3,-4
1.59101169412676e+15,2,-1,-2,0,-2,-2,-2,1
1.59101169414771e+15,5,-1,-4,-2,-2,-2,-2,-1
1.59101169414771e+15,-3,-1,-1,-2,-3,-3,0,-3
1.5910116941497e+15,-4,0,2,-2,2,2,0,-1
1.5910116941497e+15,1,1,-2,1,-1,-1,1,-1
1.59101169417065e+15,-4,-3,-2,-6,-2,-2,1,0
1.59101169417065e+15,-3,-1,1,0,-3,-3,-1,0
1.59101169417165e+15,2,2,0,1,-1,-1,0,3
1.59101169417165e+15,6,0,-3,-4,-3,-3,-2,1
1.59101169418561e+15,-3,-1,2,-1,1,1,-3,-2
1.59101169418561e+15,-5,-1,-5,0,-2,-2,1,1
1.59101169418661e+15,-2,1,1,1,2,2,-1,-2
1.59101169418661e+15,0,-1,0,-1,2,2,-1,-9
1.59101169420755e+15,-6,-1,-1,-2,-4,-4,1,9
1.59101169420755e+15,6,1,0,-2,-1,-1,2,0
1.59101169420954e+15,-3,0,-2,0,-4,-4,2,3
1.59101169420954e+15,-5,-3,0,-2,0,0,-5,-6
1.59101169423063e+15,7,2,-1,-1,-1,-1,-1,10
1.59101169423063e+15,-7,-1,-1,0,-1,-1,-4,1
1.59101169423163e+15,-1,-2,-3,2,-4,-4,-5,-4
1.59101169423163e+15,-3,-1,-1,-1,0,0,0,-4
1.59101169424459e+15,-4,0,-3,1,0,0,0,3
1.59101169424459e+15,3,1,1,-2,-1,-1,-3,1
1.59101169425157e+15,5,0,1,-3,-2,-2,-2,0
1.59101169425157e+15,1,-1,-2,-2,-3,-3,-1,-4
1.59101169426753e+15,-5,-1,-1,0,-1,-1,-1,-5
1.59101169426753e+15,-10,-1,-4,1,2,2,1,-2
1.59101169426952e+15,0,-1,-1,0,0,0,-1,-4
1.59101169426952e+15,1,0,-3,3,-5,-5,-2,3
1.59101169429047e+15,-3,-1,1,-4,3,3,0,-5
1.59101169429047e+15,11,1,-4,-3,0,0,0,4
1.59101169429147e+15,-2,-2,0,-3,-3,-3,-4,-3
1.59101169429147e+15,-3,1,1,-1,-1,-1,-3,6
1.59101169430443e+15,5,0,1,1,-2,-2,0,-6
1.59101169430443e+15,-4,0,1,1,-1,-1,-2,-3
1.59101169431141e+15,-1,-2,-3,-2,-1,-1,0,-5
1.59101169431141e+15,2,3,0,-2,1,1,4,8
1.59101169432737e+15,-8,-3,-4,-2,-3,-3,-1,-5
1.59101169432737e+15,3,0,1,-1,-3,-3,-1,-3
1.59101169433435e+15,7,0,-5,-2,-1,-1,-1,3
1.59101169433435e+15,-12,-1,2,-1,1,1,1,0
1.59101169435031e+15,1,-1,-2,-1,-3,-3,-1,-4
1.59101169435031e+15,-1,-2,-2,-3,-4,-4,0,-3
1.59101169436527e+15,1,0,0,-2,0,0,-3,0
1.59101169436527e+15,1,2,1,0,1,1,2,7
1.59101169436626e+15,-2,-2,-2,-4,-2,-2,-2,1
1.59101169436626e+15,-3,-1,3,3,2,2,-4,-7
1.59101169437125e+15,-8,-2,-3,-3,-1,-1,-3,4
1.59101169437125e+15,4,-2,-2,-4,-6,-6,-2,0
1.59101169438821e+15,-9,-1,1,0,3,3,0,-7
1.59101169438821e+15,3,1,1,-2,-1,-1,-3,6
1.5910116943892e+15,-2,-3,0,-4,-1,-1,-2,-8
1.5910116943892e+15,-10,-1,2,0,1,1,-1,-5
1.59101169441015e+15,1,0,1,1,-3,-3,-1,0
1.59101169441015e+15,-7,-3,-5,0,-2,-2,0,-5
1.59101169441214e+15,-2,0,2,4,-2,-2,1,-2
1.59101169441214e+15,-4,-2,-6,-2,-1,-1,1,3
1.59101169442511e+15,4,1,3,-3,-2,-2,1,1
1.59101169442511e+15,-1,-2,-2,-4,-2,-2,-6,0
1.59101169443907e+15,1,-1,0,-1,-2,-2,-1,-6
1.59101169443907e+15,3,1,1,-1,1,1,-3,2
1.59101169444804e+15,-1,-2,-4,-1,-3,-3,-5,-9
1.59101169444804e+15,-4,-1,-2,-2,-4,-4,1,3
1.59101169444905e+15,-3,2,2,2,2,2,2,11
1.59101169444905e+15,2,-1,0,-3,-3,-3,-3,-3
1.59101169447135e+15,6,0,-2,-3,1,1,-1,0
1.59101169447135e+15,-6,0,-3,-1,-1,-1,1,6
1.59101169447235e+15,1,-1,-5,0,-3,-3,-4,0
1.59101169447235e+15,-4,0,3,1,0,0,0,-8
1.59101169448432e+15,-6,-1,-3,0,-3,-3,-2,-1
1.59101169448432e+15,0,1,1,1,3,3,0,-5
1.5910116944913e+15,-4,-1,-2,-1,-2,-2,0,-2
1.5910116944913e+15,-1,-1,-6,-3,1,1,-1,-2
1.59101169450825e+15,-5,-3,0,-2,-3,-3,-4,-4
1.59101169450825e+15,9,2,1,0,0,0,0,-1
1.59101169450925e+15,-18,-2,4,-1,0,0,-1,-2
1.59101169450925e+15,-9,-1,1,0,-3,-3,0,-2
1.59101169453019e+15,-2,-1,2,3,0,0,0,-9
1.59101169453019e+15,-10,0,-3,-1,-4,-4,4,11
1.59101169453219e+15,15,1,-3,-1,0,0,-8,1
1.59101169453219e+15,8,1,-3,-1,-2,-2,-1,-1
1.59101169454415e+15,-3,-1,-3,0,1,1,-2,0
1.59101169454415e+15,2,1,2,2,0,0,-3,-3
1.59101169455313e+15,-2,-3,-4,-5,-3,-3,-2,-9
1.59101169455313e+15,-5,1,2,0,1,1,0,1
1.59101169456811e+15,5,0,-3,-2,0,0,-3,1
1.59101169456811e+15,1,-3,1,-1,1,1,-4,-20
1.5910116945691e+15,-6,2,2,-1,2,2,3,5
1.5910116945691e+15,3,-1,-2,-1,-2,-2,-5,-4
1.59101169459069e+15,-6,0,2,1,2,2,0,-2
1.59101169459069e+15,-1,-1,-1,1,1,1,0,-8
1.59101169459169e+15,-1,2,-1,0,-1,-1,0,10
1.59101169459169e+15,-1,-2,-7,-2,-2,-2,-1,1
1.59101169460366e+15,-1,0,-1,-1,-1,-1,-2,-2
1.59101169460366e+15,-1,-1,2,-2,-6,-6,-2,4
1.59101169461263e+15,1,1,2,2,4,4,-2,-5
1.59101169461263e+15,3,3,1,0,0,0,1,6
1.59101169462859e+15,0,1,-2,-2,0,0,0,6
1.59101169462859e+15,3,0,-3,-2,0,0,1,-2
1.59101169463358e+15,1,2,2,-1,-3,-3,0,6
1.59101169463358e+15,-2,-2,-1,0,0,0,-3,-3
1.59101169465053e+15,-2,-2,-3,-1,-2,-2,-1,-6
1.59101169465053e+15,0,0,-5,-2,-2,-2,-3,7
1.59101169465153e+15,-1,-3,-2,-4,-3,-3,1,-8
1.59101169465153e+15,-1,-1,-2,-2,0,0,-1,-5
1.59101169466449e+15,1,-2,0,-1,-4,-4,-3,-7
1.59101169466449e+15,-11,-3,-1,-3,-1,-1,0,-5
1.59101169467347e+15,3,0,-9,0,-2,-2,-1,6
1.59101169467347e+15,-8,-2,2,-1,-2,-2,-2,-6
1.59101169468743e+15,-4,0,2,0,-2,-2,-1,1
1.59101169468743e+15,-3,1,1,2,1,1,1,-3
1.59101169468943e+15,3,-2,-4,-2,-1,-1,-5,-3
1.59101169468943e+15,15,3,1,-4,0,0,-1,1
1.59101169471037e+15,-2,-1,-2,-2,-1,-1,-2,-1
1.59101169471037e+15,-4,-1,0,-2,2,2,-1,-2
1.59101169471237e+15,3,1,4,1,-2,-2,0,1
1.59101169471237e+15,-4,-2,-5,0,-2,-2,-2,-2
1.59101169472433e+15,3,-1,-3,-4,-3,-3,2,2
1.59101169472433e+15,4,-1,-1,-3,-4,-4,-2,3
1.59101169473331e+15,-4,-1,1,0,-2,-2,-3,-7
1.59101169473331e+15,0,1,-1,-2,0,0,1,4
1.59101169474827e+15,2,1,-2,1,-3,-3,-2,9
1.59101169474827e+15,-6,-3,-4,0,2,2,-4,-10
1.59101169475026e+15,-4,-3,-1,-3,-4,-4,-2,-9
1.59101169475026e+15,1,1,2,-2,-2,-2,1,2
1.59101169477021e+15,-1,-1,1,-1,3,3,-7,-7
1.59101169477021e+15,10,2,0,-4,-5,-5,1,14
1.59101169477221e+15,-1,-3,-6,-6,-2,-2,-2,-3
1.59101169477221e+15,-7,0,1,0,3,3,-1,-1
1.59101169478417e+15,-2,0,2,0,1,1,2,-1
1.59101169478417e+15,-1,-1,1,5,-1,-1,0,-10
1.59101169479315e+15,-2,1,1,1,-1,-1,0,2
1.59101169479315e+15,-14,-5,-6,-1,-4,-4,-2,-7
1.59101169480811e+15,2,0,-1,-1,1,1,0,3
1.59101169480811e+15,2,-2,-1,-1,-1,-1,-5,-7
1.59101169480911e+15,-9,0,-1,1,-2,-2,1,2
1.59101169480911e+15,2,0,1,0,-1,-1,0,-3
1.59101169483005e+15,-5,-1,-2,-2,-1,-1,0,-2
1.59101169483005e+15,8,0,-3,-4,-3,-3,-2,-3
1.59101169483205e+15,0,0,-1,-1,2,2,-2,-5
1.59101169483205e+15,1,0,2,0,0,0,-4,-2
1.59101169484401e+15,1,1,-1,-1,0,0,-2,5
1.59101169484401e+15,-10,-3,-8,-2,3,3,-1,-2
1.59101169485299e+15,-2,1,2,0,-1,-1,1,4
1.59101169485299e+15,-1,-2,0,-3,-3,-3,-2,0
1.59101169486797e+15,0,-1,-4,-1,-2,-2,-1,-5
1.59101169486797e+15,1,3,1,2,-1,-1,2,9
1.59101169487395e+15,10,3,1,1,3,3,2,2
1.59101169487395e+15,4,-1,-6,-3,-1,-1,2,-3
1.59101169489091e+15,-1,0,3,1,1,1,-2,-2
1.59101169489091e+15,2,1,1,0,-3,-3,0,9
1.59101169489191e+15,-5,-3,-2,-2,-3,-3,-1,-8
1.59101169489191e+15,-3,0,-1,-2,1,1,4,7
1.59101169490397e+15,-7,-2,2,-1,-2,-2,-1,-7
1.59101169490397e+15,5,0,0,-2,-1,-1,1,-2
1.59101169491294e+15,-1,1,0,-2,-2,-2,-1,10
1.59101169491294e+15,-12,-5,1,-2,-4,-4,-4,-14
1.59101169492794e+15,-4,-1,-5,-2,-3,-3,0,-2
1.59101169492794e+15,-4,-1,-3,1,0,0,-5,-2
1.59101169493392e+15,0,-1,0,0,-2,-2,-3,-1
1.59101169493392e+15,1,1,-1,1,-2,-2,-2,3
1.59101169494985e+15,-1,-2,-2,-3,-3,-3,-3,-2
1.59101169494985e+15,-4,-2,0,-3,-4,-4,-2,-5
1.59101169495184e+15,4,1,2,-1,-1,-1,-2,-2
1.59101169495184e+15,-8,-1,-4,1,0,0,-2,-4
1.59101169496383e+15,7,3,-2,0,2,2,2,14
1.59101169496383e+15,1,0,0,0,-2,-2,-1,1
1.59101169497278e+15,-2,-1,-1,-2,-1,-1,1,-3
1.59101169497278e+15,-1,0,0,0,-1,-1,-3,1
1.59101169498775e+15,-1,0,1,2,-2,-2,-2,-3
1.59101169498775e+15,-2,-1,-1,-3,-2,-2,-1,-1
1.59101169498974e+15,-8,-4,-2,-4,-1,-1,-2,-11
1.59101169498974e+15,0,0,1,-1,0,0,0,-3
1.59101169501072e+15,-1,0,-5,-2,-2,-2,-1,3
1.59101169501072e+15,-2,-1,-3,-2,-4,-4,0,0
1.59101169501172e+15,-3,-1,-1,0,-2,-2,0,-5
1.59101169501172e+15,2,2,2,1,1,1,5,1
1.59101169503266e+15,-6,-4,-3,-3,-3,-3,-8,-5
1.59101169503266e+15,-3,-1,0,2,3,3,-1,-14
1.59101169503466e+15,-4,-1,2,-4,-3,-3,0,3
1.59101169503466e+15,8,2,-2,-2,-2,-2,-2,8
1.59101169504762e+15,-6,-1,2,1,1,1,-1,-4
1.59101169504762e+15,5,0,-4,-1,-2,-2,-1,-2
1.59101169504962e+15,-2,-2,-3,-1,1,1,0,-5
1.59101169504962e+15,-11,-3,-2,-2,-2,-2,1,-7
1.59101169507056e+15,-1,0,-1,-1,-2,-2,2,-1
1.59101169507056e+15,0,-1,0,-3,0,0,-2,1
1.59101169507156e+15,-2,0,-1,-1,0,0,1,-2
1.59101169507156e+15,1,-1,-2,-3,-1,-1,-4,-1
1.5910116950925e+15,-6,-2,-2,-2,0,0,-1,-5
1.5910116950925e+15,1,1,3,1,-1,-1,1,1
1.5910116950945e+15,-1,0,0,0,1,1,-2,0
1.5910116950945e+15,1,-1,-5,-2,-5,-5,3,1
1.59101169510846e+15,4,1,-4,0,0,0,3,6
1.59101169510846e+15,0,0,-1,0,0,0,-4,6
1.59101169511045e+15,-9,-2,0,-2,-3,-3,-6,-1
1.59101169511045e+15,12,1,0,0,-2,-2,-6,3
1.59101169513074e+15,8,0,-1,0,2,2,-4,-4
1.59101169513074e+15,-1,0,-3,0,1,1,0,-1
1.59101169513174e+15,0,-2,-2,-3,-1,-1,-1,-6
1.59101169513174e+15,3,3,0,0,-3,-3,2,10
1.59101169515268e+15,6,-1,1,-2,-7,-7,-4,2
1.59101169515268e+15,-15,-2,-2,-2,1,1,2,-3
1.59101169515467e+15,-2,-1,-3,0,-2,-2,0,-5
1.59101169515467e+15,-3,0,2,0,0,0,-1,-3
1.59101169516764e+15,-4,-1,-5,-2,-1,-1,1,-2
1.59101169516764e+15,7,1,-5,-1,-3,-3,0,9
1.59101169517362e+15,-5,-3,-7,-3,-3,-3,-2,1
1.59101169517362e+15,-3,-2,0,0,-1,-1,-4,-7
1.59101169519058e+15,4,3,4,1,0,0,4,5
1.59101169519058e+15,2,-1,-1,-3,0,0,-4,-4
1.59101169519257e+15,1,0,-3,0,-1,-1,-2,0
1.59101169519257e+15,12,1,-2,-3,0,0,-3,0
1.59101169521352e+15,-3,-1,1,-1,-4,-4,-1,-1
1.59101169521352e+15,-5,-1,2,1,0,0,-1,-6
1.5910116952185e+15,-2,-1,-1,-2,-1,-1,-1,-2
1.5910116952185e+15,-1,-3,-6,-3,-1,-1,-6,-3
1.59101169522648e+15,2,0,0,1,1,1,-4,-1
1.59101169522648e+15,-6,-3,-1,-2,-2,-2,-2,-6
1.59101169523546e+15,5,3,0,2,2,2,1,8
1.59101169523546e+15,-11,0,0,-1,-1,-1,3,3
1.59101169525042e+15,0,-2,2,-3,-3,-3,-4,-6
1.59101169525042e+15,-6,-1,-1,0,-1,-1,-4,3
1.59101169525241e+15,1,0,1,-1,-1,-1,-1,-3
1.59101169525241e+15,-5,-2,-3,0,0,0,-2,-4
1.59101169527336e+15,-1,0,1,2,-4,-4,2,-2
1.59101169527336e+15,3,0,-2,1,1,1,0,-8
1.59101169527435e+15,-7,-1,-1,-2,-2,-2,-1,4
1.59101169527435e+15,-2,1,3,1,2,2,1,1
1.59101169528732e+15,0,-1,-2,-1,-1,-1,-3,1
1.59101169528732e+15,-1,0,4,-4,0,0,-2,1
1.5910116952943e+15,-1,-2,-8,-2,-2,-2,0,1
1.5910116952943e+15,-5,-1,-3,-1,-2,-2,-1,-1
1.59101169531026e+15,1,0,1,0,1,1,-2,-2
1.59101169531026e+15,-10,-4,-3,-3,-2,-2,-4,-9
1.59101169531225e+15,2,0,1,0,-3,-3,-1,-6
1.59101169531225e+15,0,1,-2,-4,-1,-1,1,10
1.5910116953332e+15,-4,-4,-7,-4,-2,-2,-1,-6
1.5910116953332e+15,3,0,0,-3,-3,-3,-2,0
1.59101169533419e+15,4,0,-6,-1,1,1,-1,2
1.59101169533419e+15,-4,-3,0,1,-4,-4,-2,-9
1.59101169534716e+15,0,-2,-2,-3,0,0,-2,-5
1.59101169534716e+15,-3,-1,2,-1,-5,-5,-4,-2
1.59101169535414e+15,17,6,2,0,0,0,5,15
1.59101169535414e+15,-6,-1,-1,-2,2,2,-1,-5
1.5910116953701e+15,-3,-2,-2,-3,-1,-1,-2,0
1.5910116953701e+15,-4,-1,-5,0,-1,-1,0,-2
1.59101169537209e+15,-1,1,2,0,2,2,0,-3
1.59101169537209e+15,2,0,5,1,-5,-5,-5,1
1.59101169539304e+15,-8,-2,-5,-3,1,1,0,-3
1.59101169539304e+15,3,1,-1,0,0,0,1,5
1.59101169539403e+15,-8,-2,0,-1,-2,-2,0,-5
1.59101169539403e+15,2,-1,-4,-4,2,2,0,-1
1.591011695407e+15,-6,-1,0,0,0,0,0,-3
1.591011695407e+15,-1,-1,-3,-3,-2,-2,2,5
1.59101169541398e+15,-9,-3,-2,1,0,0,-3,-5
1.59101169541398e+15,-1,-1,0,0,-1,-1,-2,-4
1.59101169543044e+15,6,1,0,-1,-3,-3,2,6
1.59101169543044e+15,-5,-1,2,1,-1,-1,-2,-1
1.59101169543144e+15,-3,0,1,-3,3,3,-2,0
1.59101169543144e+15,16,2,0,0,1,1,-1,-5
1.59101169545239e+15,-7,-2,-3,-1,-4,-4,-3,-2
1.59101169545239e+15,1,1,1,-1,0,0,2,-1
1.59101169545438e+15,-2,-2,-1,-2,-4,-4,-2,-3
1.59101169545438e+15,-1,-2,-3,-1,-4,-4,-2,-3
1.59101169546735e+15,0,-1,1,0,0,0,-3,-8
1.59101169546735e+15,2,1,-5,-2,-4,-4,-1,15
1.59101169547522e+15,5,2,0,0,0,0,0,2
1.59101169547522e+15,-5,-1,-3,2,0,0,-1,-5
1.59101169549018e+15,-4,-1,-6,-2,-1,-1,-3,1
1.59101169549018e+15,-5,-3,-6,-3,0,0,-1,-8
1.59101169549217e+15,0,-1,-3,-1,2,2,-5,-7
1.59101169549217e+15,-9,-3,-3,-4,-5,-5,0,3
1.59101169551316e+15,-1,1,3,0,0,0,0,0
1.59101169551316e+15,-8,0,5,0,2,2,-2,-4
1.59101169551511e+15,-7,-3,2,-7,-3,-3,0,-5
1.59101169551511e+15,-9,-2,-2,-2,0,0,-4,-5
1.59101169553506e+15,3,2,0,1,2,2,2,2
1.59101169553506e+15,2,3,-1,0,-1,-1,3,16
1.59101169553705e+15,0,2,0,2,0,0,1,3
1.59101169553705e+15,-3,0,1,-1,1,1,-2,-4
1.59101169555102e+15,-1,0,-3,-1,-1,-1,3,1
1.59101169555102e+15,9,1,2,-1,0,0,0,0
1.59101169555301e+15,-3,-2,-5,-2,-1,-1,-3,-1
1.59101169555301e+15,-2,-1,-2,-2,-3,-3,-2,3
1.59101169557196e+15,6,-1,1,-1,-6,-6,-3,-3
1.59101169557196e+15,-1,-1,-1,-2,0,0,-1,-4
1.59101169558094e+15,-4,-2,-5,0,-3,-3,-2,-2
1.59101169558094e+15,5,1,3,0,-1,-1,-2,3
1.59101169558692e+15,-15,-1,4,0,3,3,-1,-2
1.59101169558692e+15,-3,-4,-3,-4,-2,-2,-5,-7
1.5910116955959e+15,0,1,-1,0,1,1,1,1
1.5910116955959e+15,2,2,-3,0,0,0,0,11
1.59101169560986e+15,10,2,-1,-1,-2,-2,1,6
1.59101169560986e+15,-2,-1,-3,-1,0,0,0,-7
1.59101169561784e+15,-3,-1,0,0,1,1,2,-8
1.59101169561784e+15,0,-1,-3,0,-2,-2,2,-2
1.59101169564078e+15,-3,-1,-1,-4,-1,-1,-2,-1
1.59101169564078e+15,-2,-2,-3,0,-1,-1,-1,-7
1.59101169564177e+15,2,-1,0,-1,-3,-3,-5,-1
1.59101169564177e+15,1,0,1,0,-1,-1,0,-2
1.59101169564679e+15,-7,-3,0,0,-3,-3,-3,-7
1.59101169564679e+15,-7,-2,-7,-4,-1,-1,-2,-1
1.59101169565574e+15,4,0,2,-3,-2,-2,-4,-2
1.59101169565574e+15,-10,-3,1,0,-4,-4,0,-5
1.59101169567075e+15,-8,-2,-1,-1,0,0,0,-4
1.59101169567075e+15,3,6,6,-1,2,2,9,18
1.59101169567175e+15,-1,0,-1,0,-3,-3,-5,3
1.59101169567175e+15,-12,-2,-2,-1,1,1,-1,-2
1.59101169569272e+15,4,0,-4,-2,-2,-2,-1,0
1.59101169569272e+15,2,0,1,0,-1,-1,-2,-3
1.59101169570067e+15,-4,-2,0,-1,-2,-2,-1,-9
1.59101169570067e+15,2,-2,-3,-3,-2,-2,-3,-3
1.59101169570665e+15,-1,0,-1,0,1,1,-1,5
1.59101169570665e+15,-9,-3,-4,-3,-2,-2,-4,-7
1.59101169572264e+15,6,0,-2,-2,-1,-1,-2,0
1.59101169572264e+15,0,-1,-1,-1,-3,-3,-4,-4
1.59101169573062e+15,1,1,1,-1,3,3,-1,-3
1.59101169573062e+15,2,-1,2,0,-4,-4,-3,-4
1.59101169573162e+15,-2,-1,-4,-3,-2,-2,5,-3
1.59101169573162e+15,13,4,-3,0,4,4,0,9
1.59101169575253e+15,1,-1,-3,-2,-1,-1,0,-6
1.59101169575253e+15,-5,-3,-4,-3,-5,-5,-2,-6
1.59101169575453e+15,-1,-1,-2,-1,1,1,-6,-1
1.59101169575453e+15,0,0,1,-1,-2,-2,-2,1
1.59101169576652e+15,3,-2,0,-4,-6,-6,-2,2
1.59101169576652e+15,-2,-2,-5,-3,-1,-1,-1,-3
1.59101169577571e+15,-6,-1,0,-2,0,0,1,-4
1.59101169577571e+15,-3,0,0,-3,0,0,-1,0
1.59101169579071e+15,-9,-5,-3,-2,-2,-2,-4,-15
1.59101169579071e+15,7,2,4,2,0,0,-2,-1
1.59101169579169e+15,4,0,-1,-4,-4,-4,2,-4
1.59101169579169e+15,-5,1,1,3,2,2,0,-1
1.59101169581264e+15,0,0,-1,-1,0,0,0,-1
1.59101169581264e+15,-9,-6,-3,-4,-4,-4,-6,-15
1.59101169581461e+15,-1,1,-3,-2,-1,-1,1,13
1.59101169581461e+15,2,0,-3,1,0,0,-3,-1
1.59101169582661e+15,1,0,-2,-2,-2,-2,-1,2
1.59101169582661e+15,2,0,-3,1,0,0,-1,-4
1.59101169583555e+15,-1,0,3,0,-1,-1,-5,-2
1.59101169583555e+15,-4,-3,-4,-4,-4,-4,-2,-1
1.59101169585751e+15,0,1,1,2,-3,-3,-2,3
1.59101169585751e+15,1,1,4,0,1,1,-1,-1
1.5910116958595e+15,1,-1,-2,-2,-4,-4,-2,3
1.5910116958595e+15,-5,-2,-4,-1,0,0,1,-3
1.59101169587245e+15,-13,-2,-4,-2,1,1,3,4
1.59101169587245e+15,8,1,1,-1,2,2,-4,-6
1.59101169587445e+15,-1,6,-1,0,0,0,7,32
1.59101169587445e+15,-2,-1,0,-1,-1,-1,0,-5
1.59101169588642e+15,5,0,-4,-2,-1,-1,-1,-1
1.59101169588642e+15,-10,-1,-1,1,-2,-2,1,0
1.59101169589539e+15,0,0,1,0,0,0,0,-7
1.59101169589539e+15,-2,0,0,-1,-2,-2,0,-4
1.59101169591035e+15,-2,-2,-1,-3,-2,-2,-3,-3
1.59101169591035e+15,3,1,-2,-1,-3,-3,-2,10
1.59101169591235e+15,-8,-5,0,-1,-1,-1,-8,-13
1.59101169591235e+15,-4,-2,-2,-3,-3,-3,-2,-4
1.59101169593333e+15,0,-1,-2,-2,1,1,-2,0
1.59101169593333e+15,-5,-1,-1,0,1,1,1,-7
1.59101169593429e+15,-6,-2,-6,-2,-3,-3,3,-3
1.59101169593429e+15,8,1,0,2,-3,-3,-5,4
1.59101169595528e+15,-3,-1,3,-2,-1,-1,0,-6
1.59101169595528e+15,-3,-1,-3,-2,0,0,0,0
1.59101169595726e+15,1,-2,-1,-4,-2,-2,0,-7
1.59101169595726e+15,7,3,4,2,3,3,-1,4
1.59101169597123e+15,7,1,-1,-1,2,2,-2,-1
1.59101169597123e+15,1,0,-1,-2,-3,-3,1,4
1.59101169597223e+15,-7,-3,-2,1,0,0,-3,-15
1.59101169597223e+15,0,-1,-2,-3,-3,-3,1,-4
1.59101169600017e+15,-4,-5,-15,-3,-4,-4,-3,-5
1.59101169600017e+15,7,3,-1,1,0,0,1,13
1.59101169600211e+15,-3,-2,-5,-3,-3,-3,-1,-1
1.59101169600211e+15,-1,0,0,1,0,0,0,0
1.59101169601507e+15,-4,0,1,1,-2,-2,-2,3
1.59101169601507e+15,5,1,-4,-4,-1,-1,-2,5
1.59101169601707e+15,-1,-1,1,1,1,1,-2,-10
1.59101169601707e+15,-3,-1,-1,-2,0,0,-3,0
1.59101169603003e+15,0,-2,1,-2,-2,-2,2,-12
1.59101169603003e+15,-3,-1,-1,-1,-1,-1,-5,4
1.59101169603203e+15,0,0,4,-1,-2,-2,-4,1
1.59101169603203e+15,-12,-4,-8,-3,-1,-1,-1,-7
1.59101169605298e+15,-5,0,1,0,1,1,0,-2
1.59101169605298e+15,-8,-3,0,-1,-3,-3,0,-10
1.59101169605397e+15,4,2,2,1,1,1,0,3
1.59101169605397e+15,1,0,-1,-3,-1,-1,1,-1
1.59101169607595e+15,-2,-2,-1,-3,-1,-1,-4,-5
1.59101169607595e+15,3,2,4,0,-1,-1,0,1
1.5910116960779e+15,-11,-2,-3,-2,1,1,0,-2
1.5910116960779e+15,5,-2,-2,-2,-5,-5,-5,-8
1.59101169608987e+15,-2,2,2,-1,-1,-1,2,11
1.59101169608987e+15,2,-2,0,0,-4,-4,-2,-12
1.59101169609785e+15,1,3,-1,-1,-2,-2,2,17
1.59101169609785e+15,-1,0,-1,-3,-3,-3,0,4
1.59101169611285e+15,2,1,0,-2,-2,-2,1,8
1.59101169611285e+15,-10,-4,-1,-2,-3,-3,-1,-14
1.59101169611481e+15,2,1,0,-1,4,4,-1,1
1.59101169611481e+15,-4,-2,-6,-3,-3,-3,-1,3
1.59101169613577e+15,1,1,0,0,-2,-2,-4,5
1.59101169613577e+15,-7,0,-2,2,3,3,1,-3
1.59101169613675e+15,8,-1,1,-1,-4,-4,-5,-6
1.59101169613675e+15,-5,-3,-1,-3,-3,-3,-3,-5
1.59101169614971e+15,2,1,3,1,0,0,1,0
1.59101169614971e+15,2,-2,-7,-5,-2,-2,-3,2
1.5910116961567e+15,-8,-1,1,-2,-5,-5,-2,0
1.5910116961567e+15,11,1,2,0,-1,-1,-1,-8
1.59101169617267e+15,-5,-2,-5,-4,-4,-4,-1,5
1.59101169617267e+15,-1,0,-1,-2,0,0,0,-3
1.59101169617465e+15,2,1,-2,-2,2,2,3,0
1.59101169617465e+15,-5,-2,-1,-1,0,0,-2,-3
1.59101169619563e+15,-10,-4,-8,1,0,0,-2,-9
1.59101169619563e+15,7,2,-3,-1,-3,-3,-1,13
1.59101169619663e+15,1,-2,-5,-3,-2,-2,-3,-5
1.59101169619663e+15,-1,2,1,1,1,1,4,6
1.59101169620958e+15,2,-1,-2,1,-3,-3,-9,-3
1.59101169620958e+15,-2,-1,-2,0,1,1,-1,-8
1.59101169621658e+15,-2,0,-2,-2,-1,-1,-1,-2
1.59101169621658e+15,-1,2,2,0,2,2,-1,3
1.59101169623274e+15,0,-2,-5,-8,-2,-2,0,1
1.59101169623274e+15,2,-1,-1,-2,-2,-2,-1,-3
1.59101169623473e+15,5,-1,-3,-1,-2,-2,-3,-1
1.59101169623473e+15,-4,-2,0,1,0,0,-2,-9
1.59101169625571e+15,-2,0,-2,-1,3,3,1,0
1.59101169625571e+15,-2,0,5,-2,-1,-1,-1,1
1.59101169625673e+15,-7,-2,-3,-2,1,1,1,-4
1.59101169625673e+15,6,1,-2,-1,-2,-2,-4,10
1.59101169627866e+15,8,2,6,1,-2,-2,0,-2
1.59101169627866e+15,-2,-1,-3,-2,-3,-3,1,4
1.59101169628064e+15,-7,-2,-2,1,-2,-2,-1,-3
1.59101169628064e+15,-4,-1,-2,-2,2,2,1,0
1.5910116963006e+15,-2,-2,-3,-1,-3,-3,1,-8
1.5910116963006e+15,0,0,-2,1,0,0,-5,2
1.59101169630159e+15,2,-2,-2,-3,-5,-5,-3,-2
1.59101169630159e+15,-9,-4,-8,-2,-5,-5,0,0
1.59101169631551e+15,12,3,3,-1,2,2,2,0
1.59101169631551e+15,-5,-2,-6,-3,-1,-1,2,-2
1.59101169631656e+15,1,1,0,-1,-1,-1,-2,4
1.59101169631656e+15,-10,-2,1,-2,0,0,-2,-7
1.59101169633052e+15,1,0,0,0,-4,-4,-2,2
1.59101169633052e+15,-12,-3,-2,-1,-1,-1,-2,-7
1.59101169633649e+15,-3,-1,-3,0,1,1,-3,-3
1.59101169633649e+15,-1,-1,-2,-3,-2,-2,1,-1
1.59101169635242e+15,-11,-3,-3,-2,-3,-3,-1,-6
1.59101169635242e+15,4,0,4,0,1,1,-3,-6
1.59101169635441e+15,-3,0,0,2,-1,-1,2,0
1.59101169635441e+15,-1,-1,0,3,1,1,0,-7
1.5910116963754e+15,-4,-2,-2,-4,-4,-4,0,0
1.5910116963754e+15,4,1,-2,-2,-1,-1,1,6
1.59101169637739e+15,2,0,-1,0,-3,-3,-2,1
1.59101169637739e+15,3,1,0,1,0,0,-1,-4
1.59101169639833e+15,-4,1,3,2,3,3,-5,3
1.59101169639833e+15,-2,-1,-2,1,-4,-4,-2,0
1.59101169639929e+15,1,-4,-3,-5,-3,-3,-2,-17
1.59101169639929e+15,0,2,-3,0,-1,-1,1,12
1.59101169641331e+15,-3,-1,5,-1,-2,-2,-4,-4
1.59101169641331e+15,-6,-2,-3,-1,-1,-1,-2,-5
1.59101169641429e+15,1,1,0,-2,0,0,0,4
1.59101169641429e+15,-2,-2,-3,-1,-2,-2,-2,-4
1.59101169643519e+15,11,4,-3,2,3,3,6,3
1.59101169643519e+15,7,0,-2,-3,-3,-3,-5,6
1.59101169643719e+15,-6,-2,-2,-2,0,0,-2,-9
1.59101169643719e+15,3,1,2,-5,-2,-2,-1,11
1.5910116964492e+15,-3,-2,-4,-3,0,0,-3,-1
1.5910116964492e+15,-5,-1,0,2,1,1,2,-5
1.59101169645813e+15,-1,-1,-3,-3,-2,-2,0,0
1.59101169645813e+15,-1,-3,-5,-5,-4,-4,-3,-7
1.59101169647315e+15,2,1,-1,0,-1,-1,-2,4
1.59101169647315e+15,-7,-2,0,-3,-1,-1,2,-11
1.59101169647414e+15,7,4,-1,1,-1,-1,2,16
1.59101169647414e+15,-2,0,0,-1,0,0,0,0
1.59101169650301e+15,3,1,-2,0,-2,-2,0,1
1.59101169650301e+15,-2,-2,-6,-1,-2,-2,0,-3
1.59101169650402e+15,-4,-1,2,0,-1,-1,-1,-4
1.59101169650402e+15,-4,1,3,-2,1,1,-1,3
1.591011696509e+15,-4,-2,-2,-1,-3,-3,-2,-2
1.591011696509e+15,4,1,1,1,-1,-1,-3,-1
1.59101169651797e+15,0,1,2,-2,2,2,-1,-1
1.59101169651797e+15,3,0,-2,-1,-2,-2,-1,0
1.59101169653293e+15,-5,-3,-3,-1,-1,-1,-4,-6
1.59101169653293e+15,3,2,3,-1,-2,-2,1,8
1.59101169653493e+15,-3,-5,-8,-3,-2,-2,0,-14
1.59101169653493e+15,0,4,-1,2,3,3,-1,19
1.59101169655591e+15,1,-1,0,-1,-4,-4,-2,-1
1.59101169655591e+15,9,1,-1,-1,0,0,-1,-1
1.59101169655688e+15,-1,2,0,0,-1,-1,0,14
1.59101169655688e+15,-7,-7,-4,-5,-2,-2,-2,-24
1.59101169656884e+15,-2,-2,-4,-4,0,0,-3,-3
1.59101169656884e+15,0,0,-1,0,0,0,-2,6
1.59101169657782e+15,0,-1,2,0,0,0,-5,-9
1.59101169657782e+15,-1,1,-2,-1,-2,-2,2,8
1.59101169659278e+15,-3,0,0,-2,1,1,0,2
1.59101169659278e+15,-4,-3,-2,-2,-2,-2,-2,-5
1.5910116965948e+15,-2,0,-2,1,1,1,-3,-5
1.5910116965948e+15,-1,0,-2,0,-2,-2,1,1
1.5910116966227e+15,-1,0,0,-1,-3,-3,-3,4
1.5910116966227e+15,0,-1,-1,-3,-2,-2,0,-5
1.59101169662469e+15,-1,1,1,-2,-2,-2,-1,11
1.59101169662469e+15,-7,-1,-3,1,2,2,-2,-4
1.59101169662871e+15,2,1,4,-2,0,0,1,-2
1.59101169662871e+15,-4,-1,-3,-1,1,1,-3,-3
1.59101169663769e+15,2,1,1,0,0,0,-2,4
1.59101169663769e+15,1,-2,-5,0,-1,-1,-2,-7
1.59101169665261e+15,-5,-2,-2,-2,-2,-2,0,-5
1.59101169665261e+15,-6,0,1,-1,-2,-2,-1,1
1.59101169665461e+15,-3,-2,0,-4,-2,-2,-1,-4
1.59101169665461e+15,7,3,1,-2,0,0,-2,8
1.59101169667555e+15,-8,-2,-4,1,3,3,4,-7
1.59101169667555e+15,-4,-2,-1,1,0,0,-4,-7
1.59101169667655e+15,-7,-1,-1,0,-2,-2,-1,2
1.59101169667655e+15,-1,0,-1,-1,-1,-1,-2,0
1.59101169668852e+15,2,1,-2,-1,0,0,2,6
1.59101169668852e+15,-4,-3,-3,-1,-1,-1,-2,-11
1.5910116966985e+15,-4,-1,0,0,-3,-3,-2,0
1.5910116966985e+15,-2,-2,-1,0,-3,-3,1,-7
1.59101169671245e+15,-3,-2,-1,-3,-2,-2,-3,-7
1.59101169671245e+15,-2,3,3,0,1,1,2,7
1.59101169671445e+15,0,-1,0,0,1,1,-1,-7
1.59101169671445e+15,-1,-2,0,-5,-4,-4,-2,-3
1.59101169673539e+15,2,-1,-3,-3,-1,-1,-1,1
1.59101169673539e+15,-7,-1,-6,-2,1,1,-2,2
1.59101169673744e+15,6,0,0,2,1,1,-4,-5
1.59101169673744e+15,-8,-3,-1,0,-5,-5,-5,-3
1.59101169674935e+15,4,0,0,0,0,0,0,-3
1.59101169674935e+15,-4,-1,-2,-3,-2,-2,0,3
1.59101169675833e+15,-1,-2,-3,-2,0,0,0,-6
1.59101169675833e+15,1,0,1,1,0,0,-1,-8
1.5910116967734e+15,-3,-3,-3,-2,-4,-4,-4,-2
1.5910116967734e+15,1,2,1,4,3,3,3,0
1.59101169677951e+15,0,0,0,-1,0,0,0,1
1.59101169677951e+15,0,1,0,-1,1,1,3,-4
1.59101169679546e+15,-3,0,0,1,0,0,-7,0
1.59101169679546e+15,2,-2,-2,-4,-1,-1,-2,-6
1.59101169679737e+15,-6,-2,-1,-1,-2,-2,-1,-2
1.59101169679737e+15,1,1,0,-1,0,0,0,6
1.59101169680932e+15,-6,-2,-5,0,-2,-2,-1,-4
1.59101169680932e+15,-6,-2,-1,-2,-4,-4,-2,-2
1.5910116968183e+15,1,-2,-4,-2,-3,-3,-4,-1
1.5910116968183e+15,8,1,-1,-2,-1,-1,-5,9
1.59101169683337e+15,-3,1,2,3,5,5,1,-4
1.59101169683337e+15,4,-1,-4,-3,-6,-6,-2,2
1.59101169683426e+15,-5,1,-1,0,1,1,2,5
1.59101169683426e+15,-2,-1,0,-3,-1,-1,1,-4
1.59101169685531e+15,2,1,1,2,-1,-1,0,1
1.59101169685531e+15,0,2,-1,1,0,0,4,13
1.5910116968572e+15,0,0,-2,0,-2,-2,0,-2
1.5910116968572e+15,-7,-2,-1,0,-1,-1,-2,-5
1.59101169686917e+15,4,1,-1,-3,-2,-2,-2,8
1.59101169686917e+15,-1,-3,-1,-2,-2,-2,-3,-8
1.59101169688512e+15,-1,-1,-3,-2,-1,-1,-1,1
1.59101169688512e+15,-2,-1,2,1,0,0,1,-9
1.59101169689321e+15,-3,0,-1,-1,0,0,1,4
1.59101169689321e+15,0,-2,-2,-3,-4,-4,0,-3
1.59101169689422e+15,-6,1,0,-1,4,4,2,2
1.59101169689422e+15,2,1,-2,0,1,1,1,-2
1.59101169691527e+15,1,1,1,-1,0,0,1,-1
1.59101169691527e+15,-1,0,-1,3,-1,-1,-2,0
1.59101169691722e+15,-1,-1,1,0,0,0,-1,-13
1.59101169691722e+15,3,-1,-6,-2,-1,-1,-2,1
1.5910116969382e+15,-4,-2,-5,0,-1,-1,-4,-5
1.5910116969382e+15,4,0,-3,-1,-2,-2,-1,4
1.59101169693916e+15,2,0,1,-3,-1,-1,0,-3
1.59101169693916e+15,-4,0,-1,-1,0,0,-1,1
1.59101169695312e+15,3,-1,-5,-3,-3,-3,-2,0
1.59101169695312e+15,-1,0,0,0,2,2,-2,-4
1.59101169695412e+15,4,2,0,1,-3,-3,-2,7
1.59101169695412e+15,-11,-4,-6,-1,-1,-1,0,-7
1.59101169697511e+15,2,-3,-1,-4,-5,-5,-6,-6
1.59101169697511e+15,-2,2,2,0,2,2,1,10
1.59101169697706e+15,-10,-6,-3,-5,-3,-3,-1,-20
1.59101169697706e+15,1,1,0,-2,0,0,-1,5
1.59101169699805e+15,0,-2,-2,-2,-3,-3,-1,-5
1.59101169699805e+15,-6,-1,0,0,0,0,0,-6
1.591011697e+15,4,1,-1,-1,-2,-2,-2,5
1.591011697e+15,0,-1,-1,-1,-2,-2,-1,-4
1.591011697013e+15,-5,1,0,3,2,2,1,0
1.591011697013e+15,16,3,4,-1,2,2,-2,0
1.59101169701895e+15,-2,-1,-7,-1,-2,-2,0,3
1.59101169701895e+15,-2,0,1,-4,-2,-2,-2,9
1.59101169703591e+15,-2,1,-3,-1,1,1,2,2
1.59101169703591e+15,4,-1,-5,-3,0,0,0,-3
1.5910116970369e+15,0,1,1,1,-1,-1,2,0
1.5910116970369e+15,3,-2,-2,-2,-3,-3,-3,-6
1.5910116970576e+15,-2,-1,-2,-1,-1,-1,-2,-4
1.5910116970576e+15,-3,0,0,0,0,0,0,4
1.59101169705955e+15,0,-1,-2,-2,-2,-2,-4,1
1.59101169705955e+15,-2,0,-1,-2,-2,-2,-1,11
1.59101169707252e+15,-5,-1,1,-1,1,1,-1,-7
1.59101169707252e+15,-2,-1,0,-1,-3,-3,0,-1
1.5910116970795e+15,3,1,2,-2,-2,-2,0,7
1.5910116970795e+15,0,1,2,0,1,1,-1,-4
1.59101169709559e+15,2,1,1,0,-2,-2,3,2
1.59101169709559e+15,-9,-5,-2,-2,-4,-4,-6,-9
1.59101169709745e+15,-1,0,-6,-1,1,1,0,9
1.59101169709745e+15,2,0,0,-3,-3,-3,-2,2
1.59101169711752e+15,10,2,0,1,2,2,0,-1
1.59101169711752e+15,-9,-2,-2,1,-3,-3,-1,-5
1.59101169711939e+15,0,0,-1,-3,-3,-3,-1,0
1.59101169711939e+15,7,1,-2,1,-2,-2,1,-5
1.59101169713335e+15,1,2,-1,0,-1,-1,-1,7
1.59101169713335e+15,-1,-1,-2,-2,1,1,-1,-1
1.59101169713942e+15,-4,-1,-1,-1,-1,-1,-2,-1
1.59101169713942e+15,-4,-1,-4,-1,0,0,1,-4
1.59101169715534e+15,-6,-6,1,-7,-6,-6,-6,-8
1.59101169715534e+15,-1,-1,-1,-2,1,1,-1,-5
1.59101169715729e+15,2,0,-2,-2,-2,-2,0,-2
1.59101169715729e+15,1,-1,1,0,0,0,-3,-8
1.59101169717827e+15,-4,-4,-3,1,-4,-4,0,-15
1.59101169717827e+15,8,5,1,-1,0,0,-1,19
1.59101169717923e+15,-4,-3,-1,-3,-4,-4,-4,-4
1.59101169717923e+15,-8,0,0,1,1,1,-2,-3
1.59101169720023e+15,-3,0,1,-3,1,1,-1,-1
1.59101169720023e+15,-1,1,0,-1,1,1,3,0
1.59101169720217e+15,0,1,7,2,0,0,0,-3
1.59101169720217e+15,4,0,-3,-1,0,0,-2,1
1.59101169721517e+15,-5,0,3,-3,-3,-3,1,6
1.59101169721517e+15,-5,-3,-3,-2,-1,-1,-3,-8
1.59101169721713e+15,-6,0,1,-1,0,0,0,5
1.59101169721713e+15,-2,-1,-1,0,1,1,-3,-7
1.59101169724536e+15,-8,-2,-7,-3,0,0,-1,-1
1.59101169724536e+15,3,-1,0,0,-3,-3,-4,-4
1.59101169724705e+15,-7,-3,-2,-2,-2,-2,-2,-4
1.59101169724705e+15,-4,-3,-5,-2,-3,-3,-3,-1
1.59101169725207e+15,1,2,1,3,1,1,1,2
1.59101169725207e+15,1,-1,-1,-4,-2,-2,1,-2
1.59101169725902e+15,2,-2,-7,-3,-1,-1,-2,-2
1.59101169725902e+15,1,-2,-2,-5,-3,-3,-2,-1
1.59101169728302e+15,4,1,-1,-4,1,1,2,5
1.59101169728302e+15,-2,-2,-4,0,-3,-3,-2,-3
1.59101169728495e+15,1,2,4,0,0,0,1,-1
1.59101169728495e+15,-5,-1,1,-2,-3,-3,1,-1
1.59101169729695e+15,-3,-3,-6,2,-1,-1,0,-19
1.59101169729695e+15,-8,-2,-4,-1,-3,-3,-2,8
1.59101169730589e+15,2,2,5,-2,-2,-2,-4,10
1.59101169730589e+15,-4,0,2,1,0,0,0,-4
1.59101169731194e+15,-3,-1,-1,-2,-3,-3,-2,-2
1.59101169731194e+15,-2,0,5,-1,0,0,0,-6
1.59101169731886e+15,-4,-2,-5,-3,1,1,-3,-10
1.59101169731886e+15,-3,-1,1,-1,-2,-2,0,-2
1.59101169733581e+15,1,2,-2,0,1,1,1,7
1.59101169733581e+15,3,-1,0,-3,-4,-4,-1,0
1.59101169733681e+15,0,-1,-2,-1,-4,-4,-2,2
1.59101169733681e+15,2,3,2,1,2,2,0,8
1.59101169735878e+15,-4,0,-2,0,-3,-3,-2,3
1.59101169735878e+15,4,1,1,-1,-3,-3,2,5
1.59101169736382e+15,-2,-2,-5,-1,0,0,3,-14
1.59101169736382e+15,-6,0,0,-1,0,0,1,0
1.59101169737192e+15,1,0,-1,-2,1,1,-3,1
1.59101169737192e+15,-7,-2,2,0,1,1,-2,-5
1.59101169738081e+15,0,1,-2,-2,-2,-2,-4,10
1.59101169738081e+15,-2,-2,-1,-3,-5,-5,3,-1
1.59101169739582e+15,6,0,-4,-2,-1,-1,-3,1
1.59101169739582e+15,-4,-1,-2,0,-1,-1,-1,-2
1.59101169739677e+15,-12,-3,-7,0,1,1,-1,-7
1.59101169739677e+15,13,5,3,-1,0,0,2,12
1.59101169741676e+15,-3,-1,-1,-3,-1,-1,-1,1
1.59101169741676e+15,-3,0,-1,0,-2,-2,-1,3
1.59101169742569e+15,5,1,2,0,-2,-2,2,-3
1.59101169742569e+15,1,-1,-3,1,-3,-3,-6,-4
1.59101169743173e+15,-4,-1,0,1,0,0,-1,-3
1.59101169743173e+15,-1,-1,-1,-1,1,1,-3,-2
1.59101169744763e+15,-4,-1,-1,-4,-1,-1,0,0
1.59101169744763e+15,-5,-2,0,-2,1,1,-6,-5
1.59101169745561e+15,1,0,1,0,-1,-1,-2,3
1.59101169745561e+15,-2,-1,-2,-1,1,1,-3,-7
1.59101169745661e+15,0,2,-1,3,-2,-2,4,4
1.59101169745661e+15,-3,-1,-2,-2,-1,-1,1,-3
1.5910116974776e+15,-3,-1,0,0,-1,-1,-1,-1
1.5910116974776e+15,10,3,2,-4,2,2,3,2
1.59101169747955e+15,-8,-4,-3,-2,-1,-1,-3,-12
1.59101169747955e+15,1,-1,-3,-1,-4,-4,-1,-1
1.59101169749155e+15,0,3,3,3,6,6,-1,1
1.59101169749155e+15,-3,-2,-5,-3,0,0,0,-2
1.59101169750049e+15,8,-1,-3,-5,-4,-4,-8,3
1.59101169750049e+15,-12,-1,2,0,0,0,1,0
1.59101169751545e+15,-3,-4,-2,-5,-4,-4,-1,-8
1.59101169751545e+15,-6,-3,-4,-1,-2,-2,-2,-10
1.59101169752148e+15,3,4,1,1,2,2,4,6
1.59101169752148e+15,-2,-3,-3,-3,-1,-1,-5,-10
1.59101169753739e+15,7,-1,-5,-2,-5,-5,-2,4
1.59101169753739e+15,-1,2,-2,1,0,0,0,4
1.59101169754537e+15,4,-1,2,1,-4,-4,-4,-4
1.59101169754537e+15,-2,-2,-5,-1,0,0,-5,-2
1.5910116975514e+15,-3,-1,1,3,-1,-1,-5,-1
1.5910116975514e+15,-16,-3,-1,0,0,0,0,-3
1.59101169756033e+15,1,3,2,-1,3,3,0,2
1.59101169756033e+15,14,2,0,-2,-1,-1,-1,5
1.59101169757629e+15,-1,-1,2,-2,-2,-2,-3,0
1.59101169757629e+15,1,-2,-4,-3,-4,-4,-3,-1
1.59101169757828e+15,2,2,2,2,-2,-2,1,3
1.59101169757828e+15,-7,-2,-4,1,0,0,0,-8
1.59101169759853e+15,-3,0,-2,-3,-1,-1,3,10
1.59101169759853e+15,6,0,-1,-3,-3,-3,0,0
1.59101169761219e+15,-13,-4,-4,-3,-2,-2,1,-4
1.59101169761219e+15,-1,-2,-1,-1,-3,-3,0,-11
1.59101169761319e+15,-3,-4,-3,-4,-3,-3,-4,-8
1.59101169761319e+15,-1,-1,-2,1,1,1,-3,-6
1.59101169762027e+15,-3,-2,0,-1,-1,-1,-5,-6
1.59101169762027e+15,1,1,-3,-1,-2,-2,2,10
1.59101169763513e+15,-6,-3,-1,0,-3,-3,-3,-10
1.59101169763513e+15,-8,-1,0,0,-1,-1,-2,-1
1.59101169763712e+15,-3,-1,0,0,-1,-1,-2,-2
1.59101169763712e+15,-2,-1,0,-3,1,1,1,-5
1.59101169765807e+15,6,0,-1,0,-1,-1,-1,-4
1.59101169765807e+15,4,0,-2,-1,0,0,-1,4
1.59101169766006e+15,-2,-3,-2,-1,-2,-2,-5,-12
1.59101169766006e+15,-8,0,-3,-1,-2,-2,0,13
1.59101169767203e+15,4,-1,-2,-5,-2,-2,0,-1
1.59101169767203e+15,2,0,0,-1,-1,-1,-3,-3
1.59101169768101e+15,6,2,-1,0,1,1,3,2
1.59101169768101e+15,-3,-2,-5,-1,1,1,-4,-2
1.59101169769597e+15,0,0,-3,-2,-3,-3,0,7
1.59101169769597e+15,0,2,1,1,-1,-1,1,5
1.59101169769696e+15,2,3,0,0,1,1,3,10
1.59101169769696e+15,-7,-3,-1,1,-3,-3,-2,-10
1.59101169771892e+15,0,1,1,0,0,0,1,1
1.59101169771892e+15,-8,-3,-1,-3,-3,-3,-3,-5
1.5910116977199e+15,-2,-2,-1,-3,-3,-3,-3,-7
1.5910116977199e+15,10,-2,-3,-4,1,1,-9,-9
1.59101169774106e+15,-11,-1,1,-2,0,0,-2,1
1.59101169774106e+15,3,-1,-5,-3,-1,-1,-1,0
1.59101169774184e+15,-5,1,0,0,5,5,1,0
1.59101169774184e+15,-5,-1,-2,-2,-4,-4,1,0
1.59101169775513e+15,1,-1,2,0,-2,-2,-2,-2
1.59101169775513e+15,0,0,2,-2,1,1,-2,-3
1.591011697757e+15,2,-2,-6,-3,-5,-5,-3,8
1.591011697757e+15,-2,1,2,1,0,0,0,-2
1.59101169777798e+15,3,1,-4,0,1,1,3,2
1.59101169777798e+15,-5,-1,2,1,0,0,0,-5
1.59101169777975e+15,-1,-1,-1,-2,-3,-3,-3,-2
1.59101169777975e+15,-2,1,1,0,-1,-1,3,2
1.59101169779176e+15,2,-1,-3,-1,-4,-4,-7,0
1.59101169779176e+15,-2,1,-2,-3,0,0,2,6
1.59101169780069e+15,3,0,1,-3,-3,-3,0,-1
1.59101169780069e+15,-1,-1,2,-1,-2,-2,-2,-6
1.59101169781565e+15,-3,-2,-1,-1,-6,-6,0,-2
1.59101169781565e+15,-4,-1,4,-1,-1,-1,-2,-1
1.59101169782959e+15,-2,-1,-7,-1,2,2,-3,4
1.59101169782959e+15,-6,-3,-1,-5,-4,-4,-2,-1
1.59101169783763e+15,-5,-2,-2,-1,4,4,-5,-7
1.59101169783763e+15,5,-1,-4,-3,-2,-2,-1,-3
1.59101169783949e+15,4,0,5,-1,1,1,0,-4
1.59101169783949e+15,1,3,-1,1,4,4,3,13
1.59101169786054e+15,-1,0,-3,0,-1,-1,2,-1
1.59101169786054e+15,5,1,0,1,-3,-3,-2,1
1.59101169786254e+15,-2,-1,-1,-2,-2,-2,-1,-2
1.59101169786254e+15,5,1,2,0,-2,-2,0,1
1.59101169787545e+15,-3,2,2,0,1,1,0,8
1.59101169787545e+15,2,0,-4,-2,-1,-1,2,2
1.59101169787739e+15,1,-2,1,-1,-4,-4,-7,-5
1.59101169787739e+15,0,0,-5,0,0,0,-2,1
1.59101169789838e+15,-1,0,7,-1,0,0,1,-8
1.59101169789838e+15,-8,-2,-6,-2,0,0,-1,-4
1.59101169789934e+15,3,0,0,-3,-2,-2,-1,1
1.59101169789934e+15,0,-1,-6,-1,1,1,-1,-2
1.59101169792028e+15,-2,-1,-2,-3,-3,-3,0,0
1.59101169792028e+15,-1,-3,-1,-1,-3,-3,-3,-11
1.59101169792228e+15,-9,-3,-1,-3,-3,-3,0,-5
1.59101169792228e+15,4,1,0,0,-2,-2,0,3
1.59101169793524e+15,1,0,-4,1,3,3,-1,0
1.59101169793524e+15,2,0,0,0,-4,-4,-5,5
1.59101169793724e+15,-4,-2,-4,2,0,0,1,-4
1.59101169793724e+15,-1,0,-6,-5,0,0,1,13
1.59101169796539e+15,-4,-2,-4,-1,-2,-2,-2,-6
1.59101169796539e+15,-7,0,-1,-1,2,2,2,0
1.59101169796716e+15,-2,-1,-2,0,0,0,1,0
1.59101169796716e+15,11,2,-2,-3,-3,-3,2,0
1.59101169798096e+15,-1,0,0,-1,-1,-1,-3,0
1.59101169798096e+15,2,0,-1,-2,-1,-1,-3,7
1.59101169798172e+15,-5,-1,-2,0,1,1,-2,-7
1.59101169798172e+15,-7,-2,3,-1,0,0,-3,-8
1.59101169799472e+15,2,0,-2,0,-4,-4,2,2
1.59101169799472e+15,-1,-1,0,-1,-2,-2,1,-11
1.59101169800166e+15,4,1,-1,-3,-2,-2,0,7
1.59101169800166e+15,-3,-2,-5,0,-2,-2,-3,-3
1.59101169801767e+15,-2,-1,-2,-1,0,0,-4,-2
1.59101169801767e+15,3,1,-2,-1,-1,-1,0,7
1.59101169801966e+15,-3,-4,-2,-5,-4,-4,-5,-3
1.59101169801966e+15,-1,0,2,2,2,2,-2,-4
1.59101169804061e+15,-4,-1,0,-1,-2,-2,0,1
1.59101169804061e+15,1,-1,-2,-2,0,0,-1,-8
1.5910116980416e+15,5,2,0,0,0,0,-2,5
1.5910116980416e+15,0,-2,-1,-3,-2,-2,-4,-6
1.59101169805457e+15,4,1,0,0,-1,-1,1,2
1.59101169805457e+15,-1,-2,-1,-2,-2,-2,-4,-4
1.59101169806156e+15,5,2,-1,2,2,2,3,0
1.59101169806156e+15,0,-1,6,0,-3,-3,-2,-6
1.59101169808553e+15,-9,-5,-6,-5,-2,-2,-5,-5
1.59101169808553e+15,0,2,5,1,-1,-1,1,7
1.59101169808653e+15,-3,0,4,1,1,1,2,-10
1.59101169808653e+15,-3,0,-5,1,-2,-2,1,3
1.5910116981006e+15,3,0,-2,1,-3,-3,5,3
1.5910116981006e+15,-13,-6,-1,-3,-3,-3,-5,-19
1.5910116981025e+15,-2,-1,-2,-4,1,1,-2,1
1.5910116981025e+15,-6,-3,2,0,-2,-2,-4,-8
1.59101169811456e+15,9,0,-5,-2,-3,-3,-2,3
1.59101169811456e+15,4,1,-1,-1,-2,-2,0,3
1.59101169812146e+15,0,1,-1,1,0,0,3,2
1.59101169812146e+15,4,1,3,0,0,0,0,-5
1.59101169813841e+15,-3,2,1,1,0,0,3,-2
1.59101169813841e+15,2,-1,-2,-2,-1,-1,0,-2
1.59101169813939e+15,-6,-2,-5,-1,-5,-5,-2,5
1.59101169813939e+15,-9,-1,0,-5,-4,-4,-4,6
1.59101169816038e+15,-1,-2,-1,1,2,2,-6,-8
1.59101169816038e+15,1,3,-2,0,4,4,-2,13
1.59101169816637e+15,3,-2,-3,-1,-1,-1,-3,-9
1.59101169816637e+15,-13,-4,-4,-2,-3,-3,2,-4
1.59101169817435e+15,-2,-2,-3,-4,-4,-4,6,-1
1.59101169817435e+15,-1,-2,-2,-3,-3,-3,-5,-3
1.59101169818132e+15,-5,-2,2,-3,-2,-2,-1,-4
1.59101169818132e+15,3,1,0,0,0,0,-1,4
1.59101169819839e+15,-13,-4,3,-2,-2,-2,-1,-10
1.59101169819839e+15,9,2,-2,1,-2,-2,2,2
1.59101169819923e+15,-5,-3,-8,-3,-1,-1,-4,-3
1.59101169819923e+15,-1,-1,-2,1,0,0,-2,-2
1.59101169822022e+15,0,-1,-1,-3,2,2,-2,-2
1.59101169822022e+15,2,-1,-6,-1,-7,-7,1,5
1.59101169822217e+15,0,4,4,-3,3,3,3,17
1.59101169822217e+15,3,1,-3,-3,2,2,1,-1
1.59101169823513e+15,7,-1,-2,-3,-5,-5,-6,-2
1.59101169823513e+15,-6,-1,-2,0,2,2,2,-3
1.59101169824117e+15,8,1,-3,-1,-2,-2,-5,12
1.59101169824117e+15,1,1,5,2,-1,-1,-2,0
1.59101169825812e+15,0,1,1,-1,0,0,0,4
1.59101169825812e+15,0,-2,1,-1,-4,-4,-5,-6
1.59101169825907e+15,-18,-6,-7,-3,-3,-3,-2,-8
1.59101169825907e+15,-2,-1,-2,-4,-2,-2,-4,0
1.59101169828031e+15,-2,-1,-2,-1,-2,-2,1,-2
1.59101169828031e+15,2,0,1,-2,0,0,-4,0
1.59101169828225e+15,-5,-2,-2,1,2,2,-5,-9
1.59101169828225e+15,-1,0,-2,0,2,2,-3,-4
1.59101169829526e+15,3,1,-2,-1,-2,-2,1,11
1.59101169829526e+15,-2,-1,0,0,-2,-2,1,-2
1.59101169830124e+15,7,1,4,-1,-3,-3,1,0
1.59101169830124e+15,-3,-1,-1,2,-1,-1,-1,-5
1.59101169831818e+15,9,2,0,-2,1,1,-3,7
1.59101169831818e+15,-10,0,-2,0,3,3,0,-2
1.59101169831921e+15,-4,-3,-3,-3,-4,-4,-2,-4
1.59101169831921e+15,-6,-1,0,1,1,1,1,-8
1.59101169834031e+15,-4,1,3,3,3,3,-2,-9
1.59101169834031e+15,3,0,-6,-1,0,0,0,1
1.59101169834209e+15,7,2,4,0,1,1,3,-5
1.59101169834209e+15,-12,-8,-6,-6,-6,-6,-4,-25
1.59101169835411e+15,-2,0,-2,-2,0,0,-2,7
1.59101169835411e+15,7,3,1,-2,1,1,-2,7
1.59101169836303e+15,-1,0,2,1,-2,-2,0,-2
1.59101169836303e+15,5,2,-1,-1,-1,-1,1,7
1.59101169837806e+15,-7,-1,-3,-1,0,0,0,-5
1.59101169837806e+15,-5,-2,-1,-1,-2,-2,3,-10
1.59101169837906e+15,-2,0,-1,-1,0,0,3,1
1.59101169837906e+15,-1,2,2,1,2,2,-4,7
1.59101169840028e+15,-7,-3,-5,-2,-5,-5,-2,-5
1.59101169840028e+15,-3,0,4,-3,-2,-2,-3,-1
1.591011698402e+15,0,1,0,0,0,0,1,1
1.591011698402e+15,-2,0,-4,-1,-1,-1,4,2
1.59101169841419e+15,-4,-1,2,0,3,3,-2,-5
1.59101169841419e+15,-2,-1,-2,-3,0,0,-1,2
1.59101169842294e+15,7,-1,-2,-2,-2,-2,-4,-8
1.59101169842294e+15,-3,2,-3,-2,1,1,5,15
1.5910116984389e+15,-2,-3,-1,-3,-4,-4,-4,-6
1.5910116984389e+15,5,0,-1,-3,-4,-4,-1,1
1.59101169844395e+15,-7,-2,-1,2,3,3,-5,-11
1.59101169844395e+15,-4,-3,-2,0,-3,-3,-5,-3
1.5910116984609e+15,2,0,-1,0,-1,-1,1,0
1.5910116984609e+15,-2,1,-2,-1,0,0,0,7
1.59101169846184e+15,-9,-2,3,-1,-2,-2,-3,-3
1.59101169846184e+15,-3,-1,1,-1,0,0,-2,-6
1.5910116984743e+15,-8,-2,-1,1,0,0,-1,-7
1.5910116984743e+15,-3,-3,-1,-2,0,0,-2,-11
1.59101169848328e+15,-2,2,-1,2,1,1,0,8
1.59101169848328e+15,4,1,0,-1,0,0,2,3
1.59101169849823e+15,4,-1,-2,-4,-3,-3,-2,-2
1.59101169849823e+15,-2,2,0,0,2,2,2,5
1.59101169849923e+15,0,0,-3,1,-4,-4,0,-5
1.59101169849923e+15,2,0,2,0,-2,-2,-4,0
1.59101169852018e+15,3,0,0,-2,-2,-2,1,-3
1.59101169852018e+15,-5,-3,-2,-3,-2,-2,-2,-7
1.59101169852218e+15,5,0,-4,0,-1,-1,-2,3
1.59101169852218e+15,3,1,1,-3,-2,-2,1,5
1.59101169853419e+15,-16,-5,-9,-5,-2,-2,-2,-4
1.59101169853419e+15,3,1,0,1,2,2,1,-2
1.59101169854312e+15,7,1,1,-1,0,0,0,2
1.59101169854312e+15,2,1,1,0,0,0,2,-4
1.59101169855827e+15,3,1,3,-3,-2,-2,2,2
1.59101169855827e+15,3,-1,-2,-1,-1,-1,-1,-7
1.59101169855907e+15,-18,-6,-3,-3,-5,-5,-3,-11
1.59101169855907e+15,6,2,-3,0,-1,-1,-4,16
1.5910116985802e+15,2,1,-3,-1,-1,-1,1,8
1.5910116985802e+15,5,1,2,-1,0,0,-1,1
1.59101169858219e+15,1,0,-3,0,3,3,-2,0
1.59101169858219e+15,-11,-4,-3,-2,-2,-2,-3,-13
1.59101169859416e+15,0,0,-1,0,-1,-1,-2,1
1.59101169859416e+15,-4,-2,-2,-3,-2,-2,-3,-2
1.59101169860314e+15,-2,2,-1,1,-1,-1,2,8
1.59101169860314e+15,0,0,-2,0,-1,-1,-2,-2
1.59101169861813e+15,6,2,-1,1,-1,-1,-1,2
1.59101169861813e+15,-1,-2,-4,1,-2,-2,-2,-7
1.59101169861911e+15,-6,2,-1,1,5,5,3,5
1.59101169861911e+15,2,-2,2,-1,-1,-1,-2,-17
1.59101169864062e+15,-2,-1,0,-2,-2,-2,-2,4
1.59101169864062e+15,1,0,-1,1,-3,-3,0,-1
1.59101169864262e+15,8,0,-2,-5,0,0,-3,1
1.59101169864262e+15,-9,-2,-4,2,-1,-1,-1,-2
1.59101169865461e+15,3,0,2,-1,1,1,-2,-6
1.59101169865461e+15,-5,-1,-2,0,-2,-2,1,-3
1.59101169866359e+15,-1,0,4,-1,-3,-3,1,2
1.59101169866359e+15,10,4,-2,-2,3,3,-1,12
1.59101169867779e+15,-5,-5,-5,-2,-2,-2,-3,-22
1.59101169867779e+15,-5,0,-1,-1,1,1,0,2
1.59101169867969e+15,7,1,-2,-2,-3,-3,-1,4
1.59101169867969e+15,-4,-1,0,0,-2,-2,-2,-4
1.59101169870063e+15,-4,-2,2,-1,0,0,-1,-11
1.59101169870063e+15,3,1,-2,-1,-1,-1,-4,9
1.59101169870166e+15,-13,-5,-2,-1,-3,-3,-2,-12
1.59101169870166e+15,3,0,0,0,-2,-2,2,-3
1.59101169871363e+15,4,1,-2,-3,0,0,2,4
1.59101169871363e+15,-6,-2,1,-4,-1,-1,1,-7
1.59101169873853e+15,12,1,2,-3,-3,-3,-3,2
1.59101169873853e+15,-7,-2,-2,-2,-2,-2,-4,0
1.59101169873953e+15,-2,1,5,2,-1,-1,1,0
1.59101169873953e+15,-5,-1,0,1,1,1,-1,-1
1.59101169874152e+15,-2,-1,-1,-2,-1,-1,-3,0
1.59101169874152e+15,1,-1,-1,-1,-1,-1,1,-6
1.59101169876047e+15,5,0,-5,-2,-2,-2,-1,6
1.59101169876047e+15,7,0,-2,-2,-3,-3,-2,-1
1.59101169876247e+15,-2,-2,-3,-2,-2,-2,1,-5
1.59101169876247e+15,0,0,-2,-1,1,1,-1,2
1.59101169878289e+15,-15,-3,-1,-3,-1,-1,-2,-5
1.59101169878289e+15,7,2,0,0,1,1,-1,3
1.59101169878489e+15,-6,-3,-3,-3,-4,-4,-2,-5
1.59101169878489e+15,0,0,1,-4,-1,-1,0,0
1.59101169879785e+15,5,2,0,1,1,1,1,4
1.59101169879785e+15,-5,-2,-4,-2,-4,-4,-2,-3
1.59101169880383e+15,-9,-2,-2,-1,4,4,-2,-5
1.59101169880383e+15,-6,1,4,-1,-1,-1,0,4
1.59101169882112e+15,4,0,-3,-1,-5,-5,-2,6
1.59101169882112e+15,-8,-1,-1,-3,2,2,1,0
1.59101169882791e+15,2,1,3,-1,-2,-2,-3,7
1.59101169882791e+15,-3,-2,-3,-2,-1,-1,-3,-4
1.59101169884276e+15,1,1,1,1,1,1,2,1
1.59101169884276e+15,-7,-2,-2,0,-3,-3,0,-2
1.59101169884472e+15,5,3,0,2,1,1,1,5
1.59101169884472e+15,4,0,-2,-4,-4,-4,-1,7
1.59101169885777e+15,-1,0,0,0,1,1,0,0
1.59101169885777e+15,-1,-1,-1,-1,-1,-1,0,-3
1.59101169885968e+15,-2,-1,-3,-1,-1,-1,-1,-6
1.59101169885968e+15,5,0,-2,-2,-1,-1,0,-3
1.59101169888063e+15,-8,-1,-1,1,-1,-1,-1,-5
1.59101169888063e+15,1,-1,-1,-1,-2,-2,-3,-1
1.59101169888174e+15,-5,-1,-2,-1,-2,-2,0,-4
1.59101169888174e+15,-6,2,-1,1,0,0,5,9
1.59101169890257e+15,1,-2,-5,-3,-2,-2,-4,-4
1.59101169890257e+15,-1,0,0,-1,-1,-1,1,0
1.59101169890457e+15,13,2,-1,-1,1,1,-1,2
1.59101169890457e+15,1,0,-3,-3,-4,-4,0,4
1.59101169891756e+15,-6,-2,1,0,0,0,-8,-5
1.59101169891756e+15,-3,-1,1,-1,-2,-2,-4,-2
1.59101169891953e+15,-7,-4,-8,-5,-3,-3,-3,-4
1.59101169891953e+15,2,-2,0,-2,0,0,0,-8
1.59101169894047e+15,4,1,0,-3,-3,-3,4,2
1.59101169894047e+15,2,0,3,-1,-3,-3,-1,0
1.59101169894649e+15,-2,0,0,1,0,0,-1,-2
1.59101169894649e+15,1,-1,1,-2,-1,-1,-4,-3
1.59101169896244e+15,0,0,-4,0,-1,-1,-1,5
1.59101169896244e+15,-8,-5,-6,-3,-2,-2,-1,-9
1.59101169896441e+15,2,1,1,0,-3,-3,-1,6
1.59101169896441e+15,-4,-3,-4,1,-3,-3,-4,-7
1.5910116989774e+15,1,-2,-2,-5,-3,-3,0,-4
1.5910116989774e+15,6,2,0,1,2,2,0,3
1.59101169898435e+15,4,1,1,0,2,2,3,-8
1.59101169898435e+15,-5,-1,0,-2,-3,-3,-3,1
1.59101169900034e+15,-6,-2,2,3,-2,-2,-3,-8
1.59101169900034e+15,1,-1,0,-1,-4,-4,-3,-1
1.59101169900231e+15,-2,-1,-3,-3,0,0,-1,-3
1.59101169900231e+15,8,2,1,-1,-3,-3,1,6
1.59101169902328e+15,-7,-1,-3,-3,1,1,4,-2
1.59101169902328e+15,-3,0,-4,-1,0,0,-2,6
1.59101169903023e+15,0,1,2,0,0,0,-3,3
1.59101169903023e+15,-1,-3,-1,-3,-1,-1,-3,-9
1.59101169903724e+15,-3,-1,-1,0,-3,-3,-2,-1
1.59101169903724e+15,0,-1,-1,-2,-3,-3,-2,-2
1.59101169904419e+15,-2,-2,-3,-2,-4,-4,0,0
1.59101169904419e+15,0,1,-2,3,5,5,1,-9
1.59101169906018e+15,-3,-1,-2,-3,-4,-4,-1,1
1.59101169906018e+15,-2,-1,-1,-2,1,1,0,-1
1.59101169906217e+15,-1,0,0,0,0,0,1,0
1.59101169906217e+15,-17,-8,-11,-7,-5,-5,-2,-6
1.59101169908312e+15,10,0,-5,-3,-1,-1,-3,1
1.59101169908312e+15,-3,0,-1,2,-1,-1,1,-2
1.59101169908409e+15,-2,0,-1,-3,1,1,2,3
1.59101169908409e+15,2,1,0,-1,-1,-1,1,2
1.59101169909805e+15,2,-1,-1,-3,-3,-3,-4,-3
1.59101169909805e+15,-5,-3,-4,-3,-3,-3,-2,-1
1.59101169911201e+15,-3,-1,1,-2,-1,-1,-3,-2
1.59101169911201e+15,4,2,1,0,2,2,0,1
1.59101169912e+15,-1,-1,-1,-1,1,1,-1,-9
1.59101169912e+15,1,1,-1,-2,1,1,0,4
1.59101169912198e+15,-9,-2,-5,1,-2,-2,-2,-6
1.59101169912198e+15,2,2,1,0,1,1,1,2
1.59101169914296e+15,2,1,0,1,1,1,-3,-2
1.59101169914296e+15,-1,1,-1,0,1,1,1,2
1.59101169914494e+15,2,-1,1,-3,-3,-3,-5,-4
1.59101169914494e+15,-1,0,1,-1,-1,-1,-3,-1
1.59101169915689e+15,7,1,-1,1,0,0,-1,0
1.59101169915689e+15,-4,-2,-1,-4,-4,-4,-3,-5
1.59101169917188e+15,-3,-1,0,-1,-2,-2,-2,-2
1.59101169917188e+15,-6,0,5,2,1,1,-2,-4
1.59101169918083e+15,-3,-2,-1,-3,-3,-3,0,0
1.59101169918083e+15,7,1,1,-1,2,2,1,-4
1.59101169918182e+15,-2,-3,-10,-3,-2,-2,0,-3
1.59101169918182e+15,3,1,-2,-2,-3,-3,1,14
1.5910116992028e+15,-4,0,4,-1,1,1,-1,-1
1.5910116992028e+15,-4,-2,-2,-2,-3,-3,-3,-6
1.59101169920479e+15,-1,0,1,1,1,1,-2,-4
1.59101169920479e+15,4,-1,-5,-2,0,0,-3,-1
1.59101169921673e+15,-9,-3,-4,0,2,2,-2,-7
1.59101169921673e+15,3,1,-1,-1,-4,-4,0,2
1.59101169922371e+15,-2,0,-3,-3,0,0,1,3
1.59101169922371e+15,-7,-2,-5,-1,0,0,1,-8
1.59101169924067e+15,3,2,4,0,-1,-1,2,4
1.59101169924067e+15,-4,-3,-2,-2,-2,-2,-2,-2
1.59101169925463e+15,2,1,0,-1,0,0,0,3
1.59101169925463e+15,3,0,-1,-1,-3,-3,-1,2
1.59101169926268e+15,6,2,-3,-3,1,1,1,12
1.59101169926268e+15,-14,-2,-1,1,-1,-1,-4,-5
1.5910116992646e+15,-7,-2,-2,-1,0,0,-8,1
1.5910116992646e+15,-4,-1,0,-4,-1,-1,-1,-4
1.59101169927657e+15,-12,-2,-1,0,-1,-1,-2,-4
1.59101169927657e+15,7,2,2,0,1,1,-1,1
1.59101169928555e+15,3,1,0,-2,1,1,-1,-2
1.59101169928555e+15,-7,0,4,0,-2,-2,-3,1
1.5910116993015e+15,2,-1,-5,-1,-3,-3,-3,0
1.5910116993015e+15,-2,0,-2,-3,-1,-1,1,3
1.5910116993025e+15,1,0,-1,0,-1,-1,2,-5
1.5910116993025e+15,-5,0,6,-1,2,2,2,-4
1.59101169933048e+15,2,-1,-3,-1,-3,-3,0,1
1.59101169933048e+15,-4,0,-1,1,1,1,-1,0
1.59101169933242e+15,1,-1,0,0,-1,-1,0,-6
1.59101169933242e+15,3,-1,-3,-1,-5,-5,-6,-4
1.59101169933644e+15,7,1,-1,0,-1,-1,-1,-2
1.59101169933644e+15,3,1,-4,0,-2,-2,-2,7
1.59101169934539e+15,3,0,-1,-3,-3,-3,-1,1
1.59101169934539e+15,1,1,-1,0,0,0,1,2
1.59101169936035e+15,-7,-3,-4,-3,-2,-2,0,-7
1.59101169936035e+15,5,-2,-2,-1,-2,-2,-5,-10
1.59101169936234e+15,-3,0,0,-4,-3,-3,1,4
1.59101169936234e+15,-1,-1,-3,-2,-1,-1,-5,-2
1.59101169938329e+15,-5,-2,-5,0,-1,-1,-4,-1
1.59101169938329e+15,2,2,5,-1,0,0,0,3
1.59101169939725e+15,-8,-2,3,-1,2,2,0,-7
1.59101169939725e+15,-14,-7,-5,-3,-3,-3,-2,-20
1.59101169939825e+15,12,5,2,-1,-4,-4,-1,18
1.59101169939825e+15,-8,-1,2,1,-1,-1,-1,-9
1.59101169940523e+15,3,1,-1,1,-2,-2,-2,6
1.59101169940523e+15,3,1,1,0,0,0,0,-2
1.59101169941922e+15,0,2,1,1,4,4,3,2
1.59101169941922e+15,-1,-3,-4,-4,-2,-2,-4,-1
1.59101169942019e+15,-3,-2,-5,-4,-4,-4,-1,1
1.59101169942019e+15,1,1,-2,-1,1,1,0,3
1.59101169944312e+15,2,-1,-2,-2,-4,-4,-2,2
1.59101169944312e+15,-1,-2,-3,-2,-2,-2,0,-8
1.59101169944412e+15,-5,-1,-1,-1,-2,-2,-1,-4
1.59101169944412e+15,5,1,-4,-3,-2,-2,3,5
1.59101169945612e+15,-7,-2,0,-2,-1,-1,-3,-3
1.59101169945612e+15,0,0,0,1,1,1,-1,-2
1.59101169946507e+15,3,-1,-1,-2,-1,-1,0,-3
1.59101169946507e+15,-4,1,3,1,1,1,1,4
1.59101169948102e+15,-8,0,4,4,4,4,0,-6
1.59101169948102e+15,-4,-2,-8,-3,0,0,-1,2
1.59101169948202e+15,0,1,3,1,0,0,1,-6
1.59101169948202e+15,5,1,-3,-3,0,0,2,4
1.591011699503e+15,-8,-3,2,-1,-2,-2,0,-6
1.591011699503e+15,-6,-2,-3,-2,-3,-3,-2,3
1.59101169950496e+15,7,1,1,-2,-1,-1,-5,1
1.59101169950496e+15,3,-1,-3,-3,-1,-1,-5,1
1.59101169951693e+15,-3,-3,-2,-1,-2,-2,-4,-9
1.59101169951693e+15,4,1,-2,-2,0,0,1,0
1.5910116995259e+15,-1,-1,-5,-1,-2,-2,-1,0
1.5910116995259e+15,0,-1,-4,0,-4,-4,-3,-2
1.59101169954087e+15,1,-1,-1,-2,0,0,-4,-1
1.59101169954087e+15,3,1,1,-2,0,0,0,1
1.59101169954785e+15,-3,-1,-2,-1,1,1,0,-4
1.59101169954785e+15,-4,1,-2,-1,-2,-2,4,10
1.5910116995628e+15,-1,0,0,-3,-1,-1,1,4
1.5910116995628e+15,-7,-2,0,-1,-2,-2,-1,-6
1.5910116995648e+15,-4,-2,0,-4,-3,-3,-2,5
1.5910116995648e+15,-5,-3,-1,0,-2,-2,-2,-11
1.59101169957677e+15,-1,-1,1,-1,-1,-1,-2,-4
1.59101169957677e+15,-1,0,-4,-1,-1,-1,2,0
1.59101169958574e+15,-6,-2,0,-3,-2,-2,-3,-3
1.59101169958574e+15,4,1,4,-3,0,0,0,0
1.59101169961566e+15,-5,-2,-4,-1,-3,-3,0,2
1.59101169961566e+15,5,-1,-2,-3,-1,-1,-4,-5
1.59101169961666e+15,-1,0,-1,-1,-3,-3,0,3
1.59101169961666e+15,3,0,0,-2,0,0,0,1
1.59101169963062e+15,6,-2,-4,-2,4,4,-1,-17
1.59101169963062e+15,-3,-1,-2,-3,-4,-4,0,9
1.59101169963262e+15,-7,0,0,-1,0,0,0,4
1.59101169963262e+15,-3,-2,0,0,1,1,-4,-10
1.59101169964459e+15,-4,-2,0,-1,-2,-2,-1,-7
1.59101169964459e+15,-12,-2,-2,0,-1,-1,-2,-3
1.59101169964558e+15,4,0,-3,-1,-2,-2,-3,1
1.59101169964558e+15,-1,-2,-5,-2,-5,-5,-5,3
1.59101169965951e+15,0,4,2,3,1,1,7,10
1.59101169965951e+15,5,-1,1,-2,-4,-4,-5,-2
1.59101169966051e+15,-9,-3,-2,-1,-2,-2,-2,-1
1.59101169966051e+15,-2,0,0,0,-1,-1,3,-8
1.59101169968248e+15,-4,-1,-5,-2,-3,-3,1,1
1.59101169968248e+15,1,1,2,2,1,1,1,0
1.59101169968248e+15,0,-1,-4,-2,0,0,2,-5
1.59101169968248e+15,1,0,-1,1,-1,-1,-3,-5
1.59101169970539e+15,-3,-1,0,1,-2,-2,-3,-5
1.59101169970539e+15,2,0,1,-2,1,1,-3,1
1.59101169970642e+15,2,0,1,0,-2,-2,-3,1
1.59101169970642e+15,-4,-2,-2,-4,-1,-1,1,-5
1.59101169972833e+15,-5,-1,-1,-4,0,0,-4,0
1.59101169972833e+15,-2,-3,-1,-3,-7,-7,-3,-5
1.59101169972933e+15,-1,0,-1,1,0,0,0,-1
1.59101169972933e+15,2,-1,-2,0,2,2,-1,-7
1.59101169974229e+15,0,2,4,0,-1,-1,-1,4
1.59101169974229e+15,-7,0,0,2,2,2,0,-6
1.59101169974329e+15,1,0,-5,-2,-1,-1,-1,7
1.59101169974329e+15,-4,-2,-1,-2,-3,-3,-1,-4
1.59101169976523e+15,14,4,4,1,-1,-1,0,4
1.59101169976523e+15,-5,-3,-2,-2,-2,-2,-4,-6
1.59101169976523e+15,-8,-1,0,-2,-2,-2,3,-2
1.59101169976523e+15,1,0,-5,-2,-1,-1,-3,12
1.59101169978016e+15,5,0,-4,0,-2,-2,1,-1
1.59101169978016e+15,1,0,0,-1,-5,-5,0,5
1.59101169978016e+15,5,2,2,2,3,3,-1,-5
1.59101169978016e+15,-2,-2,-2,-4,-1,-1,-2,-3
1.59101169980208e+15,-2,-1,-2,-1,0,0,-2,0
1.59101169980208e+15,-5,-1,3,-3,-1,-1,-1,0
1.59101169980307e+15,-3,-1,-2,-2,0,0,-1,-2
1.59101169980307e+15,-1,0,-1,-1,-2,-2,1,0
1.59101169982501e+15,-7,-2,0,-1,-1,-1,-3,-7
1.59101169982501e+15,4,1,-6,-1,0,0,-1,8
1.59101169982601e+15,-2,-1,4,-1,-2,-2,-3,-4
1.59101169982601e+15,-2,0,0,-2,1,1,-2,0
1.59101169983898e+15,-3,-1,-1,0,-3,-3,2,-4
1.59101169983898e+15,-8,-1,1,1,3,3,-2,-10
1.59101169984695e+15,4,-3,-7,0,0,0,-4,-18
1.59101169984695e+15,-2,2,2,-1,-2,-2,0,10
1.59101169986191e+15,-3,-3,-9,-3,-1,-1,-5,0
1.59101169986191e+15,7,1,-2,-3,0,0,1,3
1.59101169986291e+15,-4,-1,-2,0,1,1,-3,-3
1.59101169986291e+15,1,-1,1,0,-4,-4,0,-8
1.59101169988485e+15,1,3,-2,-2,0,0,3,14
1.59101169988485e+15,-5,-2,-4,0,-3,-3,-1,-1
1.59101169988588e+15,2,1,-1,0,-1,-1,1,0
1.59101169988588e+15,-1,1,-2,0,1,1,-1,3
1.59101169989985e+15,-5,-1,1,-2,-4,-4,-1,-2
1.59101169989985e+15,6,1,-1,-2,-2,-2,1,1
1.59101169990679e+15,-1,-1,-1,-4,-5,-5,2,6
1.59101169990679e+15,-6,-1,-4,-1,0,0,-2,-1
1.59101169992175e+15,-4,-3,-3,-1,-3,-3,-5,-11
1.59101169992175e+15,10,5,1,3,5,5,1,2
1.59101169993774e+15,-5,-3,2,0,-4,-4,-3,-12
1.59101169993774e+15,1,0,-3,-2,-5,-5,-1,5
1.59101169995267e+15,4,2,0,-2,-1,-1,1,4
1.59101169995267e+15,-4,-1,-2,-2,-2,-2,2,-1
1.59101169995367e+15,4,0,4,-2,-1,-1,-2,-3
1.59101169995367e+15,-10,-3,-3,2,-1,-1,-1,-7
1.59101169995965e+15,-1,0,-2,1,-1,-1,2,-2
1.59101169995965e+15,-11,-5,-2,-4,-3,-3,-5,-7
1.59101169996065e+15,2,1,-3,-1,-1,-1,-1,10
1.59101169996065e+15,-1,-2,0,0,-2,-2,-2,-7
1.59101169998231e+15,1,-1,0,-4,-1,-1,-3,-1
1.59101169998231e+15,-2,-1,-1,-2,-1,-1,0,-3
1.59101169998327e+15,4,1,-1,-2,-2,-2,1,4
1.59101169998327e+15,0,-1,-2,1,1,1,-2,-11
1.59101170000421e+15,-2,0,-2,1,-2,-2,-4,7
1.59101170000421e+15,4,1,2,1,0,0,1,1
1.59101170000521e+15,-7,-3,-4,-2,-3,-3,-2,0
1.59101170000521e+15,2,-1,-1,0,-2,-2,-1,-2
1.59101170002017e+15,-1,-1,-2,-2,1,1,-2,-5
1.59101170002017e+15,-2,-1,-3,-2,-1,-1,-3,-1
1.59101170002117e+15,0,1,-3,-1,0,0,1,1
1.59101170002117e+15,2,0,-1,-1,-3,-3,2,-1
1.59101170004217e+15,2,3,0,1,-2,-2,3,12
1.59101170004217e+15,-8,-3,4,1,-1,-1,-7,-8
1.59101170004311e+15,-11,-4,-9,-2,-1,-1,-1,-3
1.59101170004311e+15,3,1,1,-2,0,0,-1,4
1.5910117000652e+15,-3,-1,-2,0,0,0,-1,-6
1.5910117000652e+15,2,0,-3,-2,-2,-2,1,1
1.5910117000652e+15,-5,-4,1,2,2,2,-5,-22
1.5910117000652e+15,-2,3,-2,-1,2,2,-1,28
1.59101170007989e+15,0,-1,1,0,-2,-2,-4,-3
1.59101170007989e+15,0,-1,-5,-4,-1,-1,1,-1
1.59101170008074e+15,3,0,-1,-3,-2,-2,3,1
1.59101170008074e+15,0,0,1,0,0,0,0,-3
1.59101170010268e+15,-1,-1,-2,-2,-2,-2,1,-4
1.59101170010268e+15,-3,1,-4,0,0,0,-2,7
1.59101170010368e+15,0,1,3,-1,-2,-2,2,1
1.59101170010368e+15,-3,-2,2,1,-3,-3,0,-6
1.59101170012466e+15,2,1,0,-1,2,2,1,3
1.59101170012466e+15,-6,-2,-3,0,-2,-2,2,-5
1.59101170012562e+15,3,0,-4,0,-2,-2,-3,7
1.59101170012562e+15,-2,-2,-2,-2,-2,-2,-2,-5
1.59101170013958e+15,-3,-2,-3,-2,-1,-1,-5,-7
1.59101170013958e+15,6,0,-5,-3,-3,-3,1,5
1.59101170014058e+15,3,-1,-5,-3,-3,-3,-2,3
1.59101170014058e+15,-4,-1,1,-1,-4,-4,-2,0
1.59101170016257e+15,-4,0,1,-2,-2,-2,-2,1
1.59101170016257e+15,5,2,-2,-1,0,0,-2,5
1.59101170016352e+15,-9,-1,-5,-3,-2,-2,1,4
1.59101170016352e+15,0,-1,-1,1,0,0,-3,-6
1.59101170018514e+15,2,0,1,1,1,1,2,-8
1.59101170018514e+15,-4,1,3,2,-1,-1,1,-2
1.59101170018514e+15,4,1,1,1,0,0,-4,0
1.59101170018514e+15,-4,-2,-2,-4,-2,-2,-1,-3
1.59101170019914e+15,1,0,-3,0,3,3,-1,-2
1.59101170019914e+15,-2,0,0,-2,2,2,0,-1
1.59101170020712e+15,-1,0,0,-3,1,1,-3,2
1.59101170020712e+15,-2,-1,-4,-1,0,0,-1,-5
1.59101170022308e+15,-8,-3,-6,0,-4,-4,-3,-3
1.59101170022308e+15,-7,-5,-3,-2,-5,-5,-4,-16
1.59101170022308e+15,0,4,3,2,-2,-2,3,15
1.59101170022308e+15,4,1,-1,0,2,2,0,-2
1.59101170024502e+15,-14,-3,-3,-4,-1,-1,0,-5
1.59101170024502e+15,-3,1,1,1,-1,-1,0,-1
1.59101170024598e+15,0,-1,0,-1,-1,-1,-1,-5
1.59101170024598e+15,1,0,0,-4,-1,-1,-2,0
1.59101170025898e+15,-1,-1,-2,-2,-3,-3,-3,3
1.59101170025898e+15,0,0,0,-1,-1,-1,2,-1
1.59101170026696e+15,2,0,0,0,-1,-1,3,-2
1.59101170026696e+15,-2,-2,-1,-2,-2,-2,-4,-4
1.59101170028251e+15,1,-1,-5,-3,-2,-2,1,1
1.59101170028251e+15,-1,-2,-1,-1,-3,-3,-6,-4
1.59101170028354e+15,2,1,0,0,3,3,-1,-2
1.59101170028354e+15,0,0,-3,-2,-4,-4,0,6
1.59101170030449e+15,-1,-2,-3,-2,-2,-2,-3,-3
1.59101170030449e+15,-5,0,-1,2,-1,-1,0,1
1.59101170030545e+15,-4,-3,-4,-3,-1,-1,-1,-11
1.59101170030545e+15,-3,-1,-3,-1,1,1,-3,-4
1.59101170031945e+15,4,1,3,1,-1,-1,1,-2
1.59101170031945e+15,-4,-1,-5,-4,-1,-1,1,3
1.59101170033441e+15,-1,-2,-3,-3,-1,-1,-4,-6
1.59101170033441e+15,5,1,2,0,2,2,-1,-4
1.59101170034236e+15,7,3,0,-1,-2,-2,1,10
1.59101170034236e+15,-4,-1,1,0,1,1,-2,-7
1.59101170034334e+15,-3,-2,-5,-2,-1,-1,-1,0
1.59101170034334e+15,1,-1,-1,-4,-3,-3,0,-2
1.59101170036492e+15,3,1,1,1,-1,-1,-1,-1
1.59101170036492e+15,5,-1,-2,-3,-4,-4,-6,3
1.59101170036592e+15,-2,-2,0,0,-1,-1,-4,-11
1.59101170036592e+15,-1,0,-2,-1,-4,-4,1,8
1.59101170037899e+15,3,1,2,0,2,2,-1,-3
1.59101170037899e+15,4,0,-2,-3,-2,-2,-1,-1
1.59101170038691e+15,-5,-1,-2,-1,-1,-1,1,2
1.59101170038691e+15,-3,-1,-1,-1,-2,-2,-2,-3
1.59101170040186e+15,-5,-2,1,-3,-1,-1,0,-5
1.59101170040186e+15,0,1,-1,1,0,0,1,-1
1.59101170040282e+15,-6,-1,0,-3,-3,-3,-1,3
1.59101170040282e+15,5,0,-2,0,-1,-1,-2,-4
1.59101170042476e+15,-7,-2,-4,-1,-3,-3,-4,-1
1.59101170042476e+15,1,1,1,-2,1,1,2,0
1.59101170042575e+15,3,-1,-2,-3,-6,-6,-2,1
1.59101170042575e+15,-3,2,2,1,3,3,0,6
1.59101170043875e+15,-1,-1,0,-2,-2,-2,0,0
1.59101170043875e+15,3,1,0,2,1,1,0,-2
1.59101170044769e+15,2,1,7,1,-3,-3,-4,1
1.59101170044769e+15,-6,-3,-8,-3,-4,-4,2,0
1.59101170046269e+15,0,-2,4,-2,-2,-2,-1,-13
1.59101170046269e+15,1,0,-2,0,-1,-1,3,-1
1.59101170046367e+15,6,2,0,3,-2,-2,-1,11
1.59101170046367e+15,-3,-1,1,-1,1,1,-2,-6
1.5910117004846e+15,0,0,-3,-2,-1,-1,0,3
1.5910117004846e+15,0,-2,0,-3,-5,-5,-6,-5
1.59101170048561e+15,1,0,-3,0,2,2,-1,-8
1.59101170048561e+15,0,0,1,-1,1,1,-2,-1
1.59101170049856e+15,-2,-1,-5,-2,-1,-1,-1,-1
1.59101170049856e+15,0,1,1,-1,-2,-2,1,2
1.59101170050754e+15,-2,-1,-4,-2,0,0,0,0
1.59101170050754e+15,1,0,2,0,-4,-4,3,-1
1.59101170052263e+15,7,1,0,-1,-1,-1,-3,5
1.59101170052263e+15,3,0,-1,-1,0,0,-3,-2
1.59101170052349e+15,-5,-3,0,-4,-4,-4,0,-5
1.59101170052349e+15,-1,-1,-1,1,-2,-2,0,-4
1.59101170055345e+15,-7,-1,-3,0,2,2,0,-1
1.59101170055345e+15,-9,-3,-5,-1,-1,-1,-1,-7
1.59101170055345e+15,9,3,-1,-3,-1,-1,2,12
1.59101170055345e+15,-7,-2,-1,-1,-1,-1,-2,-6
1.59101170055952e+15,-2,0,2,-1,-3,-3,-1,1
1.59101170055952e+15,-2,-1,-2,1,0,0,0,-4
1.5910117005674e+15,-4,-1,-6,-1,0,0,3,-2
1.5910117005674e+15,-5,0,1,2,-2,-2,-2,-2
1.59101170058233e+15,1,-1,-2,-2,-1,-1,-3,-4
1.59101170058233e+15,-4,-1,1,-1,1,1,-5,0
1.59101170058333e+15,6,1,1,-2,-1,-1,-1,-3
1.59101170058333e+15,-7,-1,-1,-4,-1,-1,-1,2
1.5910117006053e+15,-5,-1,-4,0,0,0,0,-3
1.5910117006053e+15,0,0,1,-1,-2,-2,2,-3
1.5910117006053e+15,6,3,0,2,-1,-1,-1,4
1.5910117006053e+15,0,-2,-6,-3,-1,-1,-3,-6
1.59101170062734e+15,-3,-2,0,-1,-3,-3,-1,-1
1.59101170062734e+15,5,-1,1,-1,-5,-5,-1,-6
1.59101170063525e+15,-6,1,0,2,4,4,0,-1
1.59101170063525e+15,4,0,-3,-1,1,1,-1,3
1.5910117006422e+15,0,-1,-3,-2,-2,-2,-1,-2
1.5910117006422e+15,0,-1,-1,-3,-2,-2,-3,1
1.59101170064317e+15,-1,-1,-1,1,-2,-2,-4,-4
1.59101170064317e+15,-10,-2,-2,1,1,1,-2,-11
1.5910117006652e+15,-10,-3,-1,-1,0,0,-3,-3
1.5910117006652e+15,-1,2,-1,1,-1,-1,6,5
1.5910117006652e+15,-1,0,1,1,3,3,-3,1
1.5910117006652e+15,-2,-2,-1,-1,-5,-5,-3,0
1.59101170068711e+15,2,1,-2,0,-2,-2,1,3
1.59101170068711e+15,3,0,-1,-4,-1,-1,1,1
1.59101170068806e+15,-5,1,2,-1,2,2,3,6
1.59101170068806e+15,5,1,-2,-3,0,0,1,3
1.59101170070205e+15,1,-1,-2,-1,-1,-1,0,-12
1.59101170070205e+15,5,2,0,-1,-2,-2,-1,11
1.59101170070302e+15,-1,-3,-4,-2,-4,-4,-2,-8
1.59101170070302e+15,0,-1,-3,1,-1,-1,-3,-6
1.59101170072496e+15,-4,0,2,-1,-1,-1,0,7
1.59101170072496e+15,-2,1,3,1,2,2,2,-4
1.59101170072595e+15,-6,-3,-8,-4,-3,-3,-3,-3
1.59101170072595e+15,6,1,0,0,-1,-1,0,-1
1.59101170074808e+15,2,0,0,-3,0,0,-1,1
1.59101170074808e+15,-6,-2,-5,-3,-1,-1,-3,-1
1.59101170074889e+15,-4,-1,2,-3,-1,-1,-1,-3
1.59101170074889e+15,-3,-1,1,-2,-3,-3,-1,0
1.59101170076289e+15,-1,-1,-2,1,-2,-2,-3,0
1.59101170076289e+15,-6,-2,-1,-1,3,3,-2,-7
1.59101170076289e+15,4,0,-4,-3,-4,-4,-3,7
1.59101170076289e+15,-2,0,3,-4,2,2,-2,1
1.5910117007848e+15,0,-1,-1,-1,-6,-6,-3,1
1.5910117007848e+15,-4,-1,-1,1,0,0,-1,-8
1.5910117007858e+15,-10,-1,0,1,0,0,1,-5
1.5910117007858e+15,7,2,1,0,0,0,0,1
1.59101170080773e+15,-6,-3,-5,-4,-1,-1,-2,-5
1.59101170080773e+15,-1,-2,-1,-2,-4,-4,-3,0
1.59101170080873e+15,1,0,1,-1,1,1,-2,-4
1.59101170080873e+15,3,1,-3,0,-2,-2,-2,3
1.59101170082469e+15,-4,-1,-1,0,0,0,2,-5
1.59101170082469e+15,-3,-1,-3,-1,-2,-2,-2,2
1.59101170082967e+15,-3,-1,1,0,-1,-1,-1,-2
1.59101170082967e+15,-1,0,0,-2,0,0,1,0
1.59101170084563e+15,4,0,-2,1,-1,-1,0,-1
1.59101170084563e+15,0,-1,-2,-3,-1,-1,-1,-2
1.59101170085964e+15,1,0,-2,2,-1,-1,-2,-2
1.59101170085964e+15,0,3,-1,1,1,1,2,12
1.59101170086759e+15,0,-2,1,-3,-3,-3,-1,-8
1.59101170086759e+15,-5,0,-1,-3,-1,-1,-3,10
1.59101170086759e+15,-5,-2,1,-1,-1,-1,-1,-5
1.59101170086759e+15,-6,-4,-3,-2,-2,-2,-6,-11
1.59101170089051e+15,-2,2,3,2,0,0,-1,5
1.59101170089051e+15,-2,1,1,1,2,2,0,-4
1.59101170089151e+15,-6,-2,-3,-3,-2,-2,-1,-3
1.59101170089151e+15,3,-1,-2,-4,-3,-3,-2,-1
1.59101170090547e+15,2,-1,-1,-3,-2,-2,-2,-1
1.59101170090547e+15,2,0,-4,1,-3,-3,0,-2
1.59101170091245e+15,1,0,-4,-2,-1,-1,3,12
1.59101170091245e+15,1,1,1,-3,0,0,0,7
1.59101170092749e+15,-8,-5,-4,0,0,0,-3,-21
1.59101170092749e+15,-4,2,0,2,1,1,0,5
1.59101170092841e+15,4,0,0,1,-1,-1,0,-5
1.59101170092841e+15,2,0,-2,-2,1,1,-2,1
1.59101170094237e+15,0,0,-3,-5,0,0,-1,7
1.59101170094237e+15,-1,-1,1,-1,-1,-1,-4,-4
1.59101170094337e+15,-1,-2,-3,-4,-4,-4,-3,-4
1.59101170094337e+15,-5,-1,1,0,-1,-1,-1,-4
1.59101170096536e+15,-2,-1,-4,0,-3,-3,-1,2
1.59101170096536e+15,10,-1,-6,-1,1,1,-3,-6
1.59101170096631e+15,-7,0,1,-1,0,0,-1,0
1.59101170096631e+15,3,-1,-6,-4,-2,-2,-1,0
1.5910117009873e+15,-1,0,0,-1,1,1,1,2
1.5910117009873e+15,9,2,-1,-3,-2,-2,2,5
1.59101170098825e+15,0,1,-1,0,-1,-1,0,-2
1.59101170098825e+15,-3,-2,1,1,1,1,-3,-13
1.59101170100222e+15,3,5,4,2,-3,-3,2,19
1.59101170100222e+15,-4,-2,-4,-3,-1,-1,0,-1
1.59101170100321e+15,3,0,2,0,-2,-2,-4,-8
1.59101170100321e+15,-5,-1,0,-1,-3,-3,0,1
1.59101170102519e+15,2,1,1,0,2,2,-1,-2
1.59101170102519e+15,-3,1,2,2,1,1,-1,5
1.59101170102519e+15,-2,-2,-2,0,2,2,-6,-9
1.59101170102519e+15,-2,0,0,-1,-3,-3,-1,1
1.59101170104813e+15,0,-2,-2,-4,-2,-2,-5,-4
1.59101170104813e+15,-4,-1,-2,-3,-1,-1,-3,0
1.59101170104813e+15,1,0,2,-1,0,0,-1,1
1.59101170104813e+15,6,-1,-7,-3,0,0,-1,-9
1.5910117010621e+15,-3,1,-3,-4,-3,-3,0,19
1.5910117010621e+15,-6,-1,2,-1,-3,-3,1,-4
1.59101170106305e+15,-1,2,1,3,0,0,1,0
1.59101170106305e+15,6,1,-1,-2,-1,-1,2,3
1.591011701085e+15,3,0,4,3,1,1,-2,-8
1.591011701085e+15,-4,-2,-3,-3,-1,-1,2,-2
1.59101170108599e+15,-1,-1,0,-1,-3,-3,-5,3
1.59101170108599e+15,-6,0,0,0,1,1,0,-4
1.59101170110694e+15,1,-1,-2,-2,-3,-3,-2,-4
1.59101170110694e+15,-10,-1,1,2,2,2,-2,-6
1.59101170111496e+15,-2,-1,-2,-5,-2,-2,0,-1
1.59101170111496e+15,-4,-2,-5,-3,-4,-4,-2,1
1.59101170112216e+15,-8,-3,-2,-1,1,1,-1,-11
1.59101170112216e+15,2,-1,0,-1,-2,-2,-6,2
1.59101170113016e+15,-3,-1,-8,1,1,1,0,0
1.59101170113016e+15,6,1,0,1,-3,-3,-4,5
1.59101170114483e+15,2,1,0,-1,1,1,1,-1
1.59101170114483e+15,0,0,4,0,-3,-3,2,-3
1.59101170114583e+15,1,1,-6,-4,-3,-3,0,9
1.59101170114583e+15,-13,-2,2,1,3,3,-5,-3
1.59101170116777e+15,3,-1,-3,2,1,1,-5,-6
1.59101170116777e+15,4,1,-1,-1,-3,-3,-1,7
1.59101170116777e+15,-6,-2,0,0,2,2,-2,-15
1.59101170116777e+15,-8,-4,-1,-3,-4,-4,1,-13
1.59101170118273e+15,-4,-3,-5,-7,-2,-2,-2,1
1.59101170118273e+15,-5,-2,1,-2,-1,-1,-2,-4
1.59101170118273e+15,0,0,-1,-2,-5,-5,3,0
1.59101170118273e+15,1,-2,-5,-1,3,3,-3,-6
1.59101170120467e+15,-5,-2,-1,2,0,0,-5,-11
1.59101170120467e+15,12,1,-3,0,-2,-2,-6,-1
1.59101170120567e+15,-12,0,1,-2,0,0,1,9
1.59101170120567e+15,-1,-2,-3,-2,-4,-4,-1,-3
1.59101170122777e+15,0,0,-4,-1,-1,-1,6,5
1.59101170122777e+15,-8,1,1,3,3,3,5,0
1.59101170122777e+15,1,0,5,0,-1,-1,-2,-4
1.59101170122777e+15,-2,0,1,-1,0,0,-1,0
1.59101170124284e+15,1,0,-3,-3,-5,-5,0,8
1.59101170124284e+15,-2,-3,-3,-1,-2,-2,-3,-8
1.59101170124284e+15,1,-1,-1,0,-1,-1,-3,-3
1.59101170124284e+15,1,1,0,-1,-2,-2,1,2
1.5910117012648e+15,-5,-1,0,2,1,1,-1,-3
1.5910117012648e+15,-2,-2,-2,-3,-1,-1,-4,-2
1.59101170126562e+15,3,1,0,1,3,3,-2,2
1.59101170126562e+15,-6,-3,-5,-6,-3,-3,-2,2
1.59101170128778e+15,-2,0,5,2,0,0,0,-8
1.59101170128778e+15,2,1,-4,-1,-2,-2,1,6
1.59101170128856e+15,6,1,-2,-3,-1,-1,2,2
1.59101170128856e+15,2,0,-2,1,-2,-2,0,-2
1.59101170130153e+15,5,2,1,-3,-1,-1,2,9
1.59101170130153e+15,-2,0,2,0,1,1,-1,-1
1.59101170130952e+15,-3,0,-3,0,1,1,-1,0
1.59101170130952e+15,3,0,0,-1,-3,-3,3,-2
1.59101170132446e+15,-13,-3,0,-2,2,2,-2,-11
1.59101170132446e+15,3,2,-2,-2,0,0,2,9
1.59101170132546e+15,-5,-4,-1,-1,-2,-2,-6,-8
1.59101170132546e+15,-3,-2,0,-2,0,0,-2,-6
1.59101170134744e+15,7,0,-1,0,-4,-4,-8,8
1.59101170134744e+15,1,0,-2,0,-1,-1,-1,-9
1.59101170134843e+15,-1,0,1,-2,-2,-2,3,-2
1.59101170134843e+15,-3,-1,0,1,-4,-4,-4,-5
1.59101170136136e+15,7,3,2,1,3,3,0,9
1.59101170136136e+15,-8,-3,-4,-1,0,0,-3,-5
1.59101170136934e+15,3,-1,-1,-2,-7,-7,-2,-2
1.59101170136934e+15,3,0,-1,-3,1,1,2,-2
1.5910117013843e+15,4,0,-6,-2,-3,-3,4,-1
1.5910117013843e+15,-7,-2,1,-3,-2,-2,-2,-4
1.59101170138532e+15,-7,-2,-2,-4,-3,-3,-4,1
1.59101170138532e+15,-2,1,-2,0,1,1,-2,5
1.59101170140724e+15,-4,-2,-1,0,-1,-1,-2,-8
1.59101170140724e+15,9,-1,-6,-3,-4,-4,-3,2
1.59101170140826e+15,7,1,-1,-2,-3,-3,-2,3
1.59101170140826e+15,-3,-1,-4,-2,-1,-1,-2,1
1.59101170142125e+15,5,0,2,-1,-1,-1,-4,-3
1.59101170142125e+15,-8,-3,-2,-3,-1,-1,-3,-4
1.59101170143018e+15,6,2,3,0,2,2,-1,1
1.59101170143018e+15,-1,3,-2,-1,-3,-3,2,20
1.59101170144514e+15,-5,-2,-1,-2,-3,-3,-2,-4
1.59101170144514e+15,-3,1,1,1,0,0,2,-2
1.59101170144514e+15,-1,-1,-4,0,1,1,-4,0
1.59101170144514e+15,-5,-2,1,1,3,3,-2,-12
1.59101170146719e+15,0,1,-1,-3,0,0,5,0
1.59101170146719e+15,1,-1,0,-2,-4,-4,-3,-3
1.59101170146808e+15,-6,-2,-4,-4,0,0,2,-3
1.59101170146808e+15,0,-1,2,-1,0,0,-3,-7
1.59101170148222e+15,-8,-3,-4,-2,-3,-3,-5,0
1.59101170148222e+15,1,-2,-1,-3,-3,-3,0,-5
1.5910117014903e+15,4,-1,-3,-3,-1,-1,-3,-1
1.5910117014903e+15,-1,-1,0,0,-3,-3,-1,-1
1.59101170150525e+15,-2,-2,-3,1,-2,-2,-3,-2
1.59101170150525e+15,0,2,1,2,1,1,0,2
1.59101170150599e+15,-4,-1,-1,-1,-3,-3,-1,1
1.59101170150599e+15,-6,-2,0,-3,-1,-1,-4,1
1.59101170152797e+15,6,0,-1,-1,-2,-2,-4,-3
1.59101170152797e+15,-3,-2,-2,-1,-6,-6,-2,-9
1.59101170152797e+15,-2,1,-1,0,0,0,-2,8
1.59101170152797e+15,-2,-3,-3,-1,-3,-3,-6,-7
1.59101170155087e+15,4,3,0,-3,-1,-1,1,17
1.59101170155087e+15,-3,0,-2,0,0,0,-1,0
1.59101170155087e+15,0,-1,2,1,-3,-3,-1,-10
1.59101170155087e+15,2,2,5,-4,0,0,4,5
1.59101170156502e+15,10,1,-3,-1,-1,-1,1,3
1.59101170156502e+15,-9,-1,-3,1,1,1,3,-1
1.59101170156584e+15,-1,0,-2,1,0,0,-1,0
1.59101170156584e+15,3,1,-3,1,0,0,0,3
1.59101170158677e+15,-8,-3,0,0,-1,-1,-3,-12
1.59101170158677e+15,3,-1,-2,-4,-1,-1,2,-1
1.59101170158777e+15,-1,-1,0,1,-2,-2,-3,-1
1.59101170158777e+15,1,-1,0,-1,-3,-3,-3,-5
1.59101170160176e+15,-4,0,0,1,-2,-2,0,2
1.59101170160176e+15,-10,-2,4,-1,0,0,-7,-2
1.59101170160972e+15,-2,-2,-2,-4,1,1,-2,-4
1.59101170160972e+15,4,3,4,1,4,4,-1,4
1.5910117016247e+15,-6,-3,1,-1,-4,-4,-6,-6
1.5910117016247e+15,-5,1,-3,1,3,3,-1,2
1.59101170162567e+15,-6,-3,-1,-2,-3,-3,1,-8
1.59101170162567e+15,-4,-1,-8,-3,1,1,2,-1
1.59101170164779e+15,-5,-1,1,-1,-2,-2,2,-7
1.59101170164779e+15,4,-1,-1,-3,-6,-6,0,3
1.59101170164861e+15,-4,-3,-2,-2,-2,-2,-2,-6
1.59101170164861e+15,-4,-1,0,1,-2,-2,2,0
1.59101170167055e+15,4,-1,-4,-1,2,2,1,-3
1.59101170167055e+15,7,0,-1,0,-1,-1,-5,-2
1.59101170167155e+15,-4,-1,0,-4,2,2,1,-2
1.59101170167155e+15,2,1,-2,-2,-5,-5,-2,15
1.59101170168452e+15,1,-2,-13,-2,-1,-1,3,-2
1.59101170168452e+15,-4,-1,2,-2,-1,-1,0,-2
1.59101170168551e+15,-2,-1,-1,-2,1,1,-2,-2
1.59101170168551e+15,1,-2,-4,0,0,0,-5,-7
1.59101170170716e+15,-15,-3,1,-4,-1,-1,-3,1
1.59101170170716e+15,3,1,-2,2,0,0,-4,1
1.59101170170811e+15,-4,0,-5,1,-1,-1,-2,3
1.59101170170811e+15,3,-1,1,0,-1,-1,0,-8
1.59101170173005e+15,-2,-1,-4,0,1,1,-2,-3
1.59101170173005e+15,-6,-2,0,-4,-3,-3,0,-2
1.59101170173708e+15,2,0,2,-3,-3,-3,1,2
1.59101170173708e+15,1,0,-5,-2,-4,-4,0,8
1.59101170174521e+15,-4,1,2,1,-1,-1,2,2
1.59101170174521e+15,-1,0,-3,0,1,1,-1,1
1.59101170174601e+15,2,-1,-1,1,0,0,0,-14
1.59101170174601e+15,-5,-2,-3,-2,-1,-1,-1,3
1.59101170177603e+15,-2,-2,0,-1,-1,-1,-3,-11
1.59101170177603e+15,13,2,1,0,0,0,-2,-5
1.59101170177603e+15,-16,-2,0,-2,-3,-3,-2,7
1.59101170177603e+15,-4,-1,0,-3,1,1,1,-2
1.59101170179089e+15,-3,0,4,-1,1,1,-1,-1
1.59101170179089e+15,-3,0,-3,-1,0,0,2,1
1.59101170179089e+15,8,1,0,-1,-2,-2,2,-2
1.59101170179089e+15,-2,-2,-2,-3,-1,-1,0,-5
1.59101170180485e+15,-6,-3,-3,1,-1,-1,-5,-8
1.59101170180485e+15,6,0,-2,-1,-4,-4,-1,6
1.59101170180585e+15,2,1,-1,-2,-2,-2,0,5
1.59101170180585e+15,-6,0,3,2,-1,-1,-2,-1
1.59101170182779e+15,7,0,-6,1,0,0,-1,0
1.59101170182779e+15,1,2,0,1,1,1,0,3
1.59101170182779e+15,-6,-2,-1,0,0,0,-3,-8
1.59101170182779e+15,-2,-2,-1,-1,0,0,-6,-4
1.59101170185076e+15,-3,-2,-1,-4,-1,-1,-4,4
1.59101170185076e+15,-4,-1,-1,0,0,0,-2,-4
1.59101170185173e+15,2,0,0,-2,-2,-2,-1,3
1.59101170185173e+15,2,0,-7,-1,1,1,2,-2
1.59101170186477e+15,1,1,5,-3,0,0,-1,-4
1.59101170186477e+15,-7,-1,-6,-2,3,3,5,1
1.59101170186569e+15,10,2,-2,0,-3,-3,-2,9
1.59101170186569e+15,-8,-4,-3,-4,-3,-3,-1,-9
1.59101170188774e+15,6,1,-1,-1,-5,-5,1,7
1.59101170188774e+15,-4,-2,2,0,-4,-4,-2,-10
1.59101170188842e+15,3,0,-2,-2,0,0,-1,0
1.59101170188842e+15,0,0,2,1,2,2,-5,-11
1.59101170191035e+15,-5,0,-4,-2,2,2,0,2
1.59101170191035e+15,10,1,-3,-2,-5,-5,0,0
1.59101170191129e+15,-9,0,-4,4,3,3,-2,-1
1.59101170191129e+15,-6,-4,-4,-3,-1,-1,-5,-12
1.59101170192525e+15,-2,-1,2,-1,-1,-1,-1,-2
1.59101170192525e+15,-2,-2,-2,-1,-1,-1,-1,-4
1.59101170192525e+15,4,-2,-4,-1,0,0,-3,-3
1.59101170192525e+15,5,1,0,1,-3,-3,2,-1
1.59101170194725e+15,-1,2,2,2,3,3,0,-2
1.59101170194725e+15,-3,-1,3,-4,1,1,-3,0
1.59101170194819e+15,4,2,-4,-4,0,0,1,10
1.59101170194819e+15,-3,2,3,4,-3,-3,1,7
1.59101170197017e+15,11,2,2,-2,-3,-3,1,3
1.59101170197017e+15,-7,-3,-8,-3,-1,-1,-2,-1
1.59101170197113e+15,2,-1,0,-3,0,0,-4,-5
1.59101170197113e+15,-2,-1,1,0,0,0,-3,-3
1.59101170198509e+15,-7,-2,-5,0,-2,-2,-2,3
1.59101170198509e+15,-4,0,3,4,0,0,-1,3
1.59101170198509e+15,3,1,-1,0,-1,-1,2,0
1.59101170198509e+15,4,2,1,2,-2,-2,2,2
1.59101170200683e+15,-11,-4,-4,-3,0,0,-3,-10
1.59101170200683e+15,-7,-3,1,-4,-2,-2,-2,-7
1.59101170200782e+15,-1,-1,1,0,-2,-2,1,-5
1.59101170200782e+15,2,2,-1,0,1,1,1,5
1.59101170203076e+15,-5,-1,-4,-4,-2,-2,0,5
1.59101170203076e+15,1,0,-2,-3,-1,-1,0,0
1.59101170203204e+15,-12,-1,-4,-1,2,2,-1,0
1.59101170203204e+15,5,0,-3,-2,2,2,0,1
1.59101170204473e+15,4,-2,3,0,-1,-1,-6,-16
1.59101170204473e+15,-2,0,2,0,0,0,1,2
1.59101170204572e+15,-12,-3,-2,-2,-3,-3,-1,-3
1.59101170204572e+15,0,-1,-2,-3,-2,-2,-2,2
1.59101170206674e+15,-11,-4,-1,-1,-4,-4,-2,-11
1.59101170206674e+15,2,1,-3,0,1,1,2,2
1.59101170206766e+15,6,2,5,-1,3,3,2,-3
1.59101170206766e+15,-3,0,-2,2,1,1,-3,0
1.5910117020906e+15,-6,-2,-4,3,-4,-4,0,-6
1.5910117020906e+15,-1,0,-2,1,1,1,-3,-1
1.5910117020916e+15,0,-1,-4,0,-2,-2,0,0
1.5910117020916e+15,-4,-2,2,-5,-3,-3,-1,-4
1.5910117021049e+15,3,1,2,-1,0,0,1,2
1.5910117021049e+15,5,-2,-3,-3,-4,-4,-6,-2
1.59101170210558e+15,-7,-3,-2,1,-4,-4,-1,-8
1.59101170210558e+15,5,2,1,2,0,0,-1,0
1.59101170212765e+15,1,-3,-5,-5,-3,-3,-2,-8
1.59101170212765e+15,1,1,-3,-3,-2,-2,0,7
1.59101170212855e+15,1,1,1,-3,2,2,-1,-2
1.59101170212855e+15,-1,0,-3,-2,-3,-3,2,4
1.59101170215842e+15,1,-2,0,-2,-1,-1,-4,-6
1.59101170215842e+15,0,0,2,-2,1,1,1,0
1.59101170215842e+15,-7,-3,2,-2,-6,-6,0,-7
1.59101170215842e+15,-9,-2,-5,-2,-2,-2,1,1
1.59101170216446e+15,5,2,-1,-2,1,1,0,5
1.59101170216446e+15,-7,-1,0,0,3,3,-3,-7
1.5910117021654e+15,3,0,0,-3,-2,-2,0,-1
1.5910117021654e+15,4,-2,-5,-4,-1,-1,-7,1
1.59101170218735e+15,-1,1,1,0,3,3,0,0
1.59101170218735e+15,-5,-3,-2,-1,-3,-3,-3,-2
1.59101170219502e+15,6,3,-1,1,0,0,2,8
1.59101170219502e+15,2,2,2,0,0,0,2,8
1.59101170221094e+15,-6,-1,4,2,-6,-6,0,5
1.59101170221094e+15,-3,-1,-1,0,-2,-2,0,-4
1.59101170221194e+15,2,-2,-4,-2,-2,-2,-1,-4
1.59101170221194e+15,-2,-1,0,0,-1,-1,2,-7
1.59101170222394e+15,1,0,-1,-4,0,0,-1,5
1.59101170222394e+15,-6,-1,-3,3,0,0,1,-3
1.59101170223292e+15,0,0,1,-1,0,0,-6,1
1.59101170223292e+15,-1,1,-2,-3,3,3,0,1
1.59101170224687e+15,4,2,0,-2,-3,-3,2,8
1.59101170224687e+15,2,1,0,-2,-4,-4,3,-2
1.59101170224784e+15,-8,-1,2,0,-1,-1,-2,-3
1.59101170224784e+15,-2,0,0,2,-1,-1,-4,-1
1.59101170227078e+15,1,-3,-2,-4,-2,-2,-5,-10
1.59101170227078e+15,0,-1,0,-3,-1,-1,-5,2
1.59101170227078e+15,-4,-2,-4,-3,1,1,-2,-2
1.59101170227078e+15,-8,-3,0,-3,0,0,-4,-7
1.59101170228374e+15,-3,1,-2,1,1,1,1,5
1.59101170228374e+15,5,1,1,-1,-1,-1,-1,-1
1.59101170229274e+15,3,0,-1,1,0,0,1,-1
1.59101170229274e+15,-5,-2,-2,-2,-5,-5,-1,-5
1.59101170230669e+15,4,1,-4,0,-2,-2,3,4
1.59101170230669e+15,1,-1,0,-3,-1,-1,0,0
1.59101170230768e+15,-9,-2,1,-3,-5,-5,-2,3
1.59101170230768e+15,-2,-3,-3,-6,-1,-1,-1,-2
1.59101170233065e+15,3,0,1,2,-1,-1,-5,0
1.59101170233065e+15,2,0,-2,-2,-1,-1,-2,3
1.59101170233166e+15,0,0,1,0,2,2,-2,-6
1.59101170233166e+15,6,1,-1,0,-1,-1,-2,5
1.59101170234361e+15,-2,-1,-3,-1,-2,-2,-1,-6
1.59101170234361e+15,-2,-2,1,-1,-2,-2,0,-10
1.59101170235259e+15,-3,2,-1,-2,-1,-1,1,18
1.59101170235259e+15,-4,-2,-4,-1,-3,-3,-7,0
1.59101170236752e+15,5,0,-2,-1,2,2,-3,-1
1.59101170236752e+15,-15,-3,-5,-3,-3,-3,-1,-2
1.59101170236752e+15,6,1,0,1,1,1,1,-4
1.59101170236752e+15,-10,-4,-5,-4,-1,-1,-1,-8
1.59101170239065e+15,-1,0,0,-1,-1,-1,-2,2
1.59101170239065e+15,4,0,2,-4,3,3,-4,-4
1.59101170239165e+15,-2,0,-2,3,1,1,-3,-5
1.59101170239165e+15,-4,1,0,-1,-2,-2,2,5
1.59101170240362e+15,0,0,2,0,-4,-4,-1,0
1.59101170240362e+15,0,-3,-5,-2,-5,-5,-1,-6
1.59101170241262e+15,2,0,-4,-2,1,1,6,-2
1.59101170241262e+15,-3,-1,-3,2,-1,-1,1,-6
1.59101170242755e+15,-5,-2,-4,0,1,1,0,-3
1.59101170242755e+15,-4,0,1,1,-1,-1,-3,5
1.59101170243454e+15,2,0,-2,-2,-1,-1,-4,0
1.59101170243454e+15,-2,-1,4,1,-2,-2,-4,-3
1.59101170245049e+15,-4,-2,-2,-4,1,1,-1,-3
1.59101170245049e+15,0,1,1,-1,0,0,1,2
1.59101170245149e+15,-1,-3,-3,-5,-3,-3,-2,-4
1.59101170245149e+15,4,0,-1,-2,-2,-2,1,2
1.59101170246446e+15,0,0,-3,-3,2,2,-1,1
1.59101170246446e+15,-5,0,-3,-1,1,1,2,0
1.59101170247243e+15,3,0,-2,-2,-1,-1,0,0
1.59101170247243e+15,3,0,-5,0,0,0,3,0
1.59101170248743e+15,-4,-3,-4,-2,-4,-4,-3,-4
1.59101170248743e+15,2,-2,0,-2,-1,-1,-8,-4
1.59101170248839e+15,-4,-3,-1,0,-2,-2,-4,-6
1.59101170248839e+15,7,3,2,0,-2,-2,-1,10
1.59101170250983e+15,-5,-2,-1,-3,-3,-3,-1,-2
1.59101170250983e+15,-1,1,0,2,2,2,2,-3
1.59101170251682e+15,-1,-2,2,-4,0,0,-2,-5
1.59101170251682e+15,-1,-1,2,-1,-1,-1,-1,-5
1.59101170252381e+15,-7,1,0,0,2,2,3,2
1.59101170252381e+15,10,2,-4,1,-2,-2,1,7
1.59101170253177e+15,-9,-1,-2,2,1,1,-2,5
1.59101170253177e+15,3,0,0,-1,0,0,-2,-7
1.59101170254772e+15,-2,0,-2,1,-1,-1,-3,-2
1.59101170254772e+15,-1,0,-3,-2,2,2,0,-3
1.59101170254772e+15,4,0,-1,-1,-3,-3,1,0
1.59101170254772e+15,-3,-1,-3,0,-1,-1,0,-3
1.59101170257066e+15,-8,-2,0,2,-2,-2,-1,-12
1.59101170257066e+15,1,1,1,-3,-4,-4,-1,10
1.59101170257166e+15,-4,-1,-1,-3,2,2,-1,0
1.59101170257166e+15,5,1,2,-2,2,2,-4,3
1.5910117025926e+15,6,0,-3,-4,1,1,-3,8
1.5910117025926e+15,-7,-4,-1,-1,-5,-5,-3,-15
1.59101170259959e+15,5,1,0,4,-3,-3,-2,-3
1.59101170259959e+15,-7,-2,-3,-1,1,1,2,-8
1.59101170260756e+15,0,1,-3,0,-3,-3,-1,11
1.59101170260756e+15,4,1,-3,-4,1,1,3,8
1.59101170260756e+15,-5,-5,-3,-5,-4,-4,-6,-6
1.59101170260756e+15,-1,1,1,-2,-1,-1,1,4
1.59101170263053e+15,3,1,-2,-2,0,0,1,0
1.59101170263053e+15,-2,0,0,2,-2,-2,-1,-5
1.5910117026315e+15,-5,-1,0,-1,-2,-2,-1,2
1.5910117026315e+15,2,-1,-1,0,0,0,-1,-12
1.59101170265245e+15,-3,2,0,-2,-1,-1,5,9
1.59101170265245e+15,1,0,1,-2,-1,-1,-1,2
1.59101170265943e+15,-2,-1,0,-2,-1,-1,-1,-4
1.59101170265943e+15,3,0,0,1,-1,-1,-1,-3
1.59101170266741e+15,-5,-3,-1,0,-3,-3,-4,-5
1.59101170266741e+15,-5,-2,2,-1,-3,-3,-4,-1
1.5910117026684e+15,-6,-2,-2,0,-3,-3,-3,-3
1.5910117026684e+15,-4,-1,-2,-2,2,2,-1,-3
1.59101170269036e+15,15,5,4,0,2,2,2,6
1.59101170269036e+15,-4,0,1,2,-1,-1,0,-3
1.59101170269134e+15,4,3,-2,-1,0,0,3,9
1.59101170269134e+15,-5,-2,-7,-5,-3,-3,3,-4
1.5910117027133e+15,-2,-2,-3,-1,-4,-4,2,-8
1.5910117027133e+15,0,1,0,1,3,3,-1,-1
1.5910117027133e+15,3,0,0,0,-3,-3,-2,-1
1.5910117027133e+15,-6,-1,-1,0,-2,-2,-3,1
1.59101170272724e+15,-6,-2,-3,0,-3,-3,-4,-5
1.59101170272724e+15,9,3,-2,2,-1,-1,2,5
1.59101170272824e+15,-7,-2,-1,-2,-3,-3,2,-7
1.59101170272824e+15,2,1,-2,-3,0,0,-1,4
1.59101170274897e+15,-1,0,0,-4,1,1,2,1
1.59101170274897e+15,1,-1,2,-4,-3,-3,-2,1
1.59101170275698e+15,-1,0,1,0,3,3,0,-7
1.59101170275698e+15,-7,-4,-5,-2,-5,-5,-6,-4
1.59101170277196e+15,3,0,2,1,0,0,-3,-2
1.59101170277196e+15,-4,-1,-3,1,4,4,-4,-3
1.59101170277989e+15,1,0,0,0,-2,-2,-1,2
1.59101170277989e+15,-6,-1,-3,-2,-1,-1,-2,3
1.5910117027869e+15,-1,0,0,0,-5,-5,2,-1
1.5910117027869e+15,-5,-1,-6,-1,0,0,1,-6
1.59101170278787e+15,2,0,-2,-2,-1,-1,-2,1
1.59101170278787e+15,5,3,1,1,-1,-1,1,8
1.59101170281081e+15,-15,-5,-5,-3,2,2,-5,-13
1.59101170281081e+15,0,-1,0,-2,-3,-3,-3,-1
1.59101170281081e+15,0,-2,-2,-2,-2,-2,-3,-3
1.59101170281081e+15,2,1,0,-1,-1,-1,1,4
1.59101170283275e+15,8,0,0,-2,-2,-2,1,1
1.59101170283275e+15,-3,-1,0,1,-2,-2,0,-4
1.59101170283374e+15,-5,-2,-4,1,0,0,-2,0
1.59101170283374e+15,1,1,8,-2,-1,-1,1,-1
1.59101170284671e+15,-4,-1,-3,-2,-2,-2,-1,1
1.59101170284671e+15,-3,-3,-2,-2,-4,-4,-2,-8
1.59101170285469e+15,1,1,-2,-1,-1,-1,3,1
1.59101170285469e+15,4,1,-4,1,0,0,-1,1
1.59101170287867e+15,6,-1,-1,0,0,0,-7,-6
1.59101170287867e+15,-2,-3,-4,-2,-1,-1,-1,-12
1.59101170287962e+15,1,3,-5,-2,0,0,-2,24
1.59101170287962e+15,-1,1,3,-2,-1,-1,2,-3
1.59101170289262e+15,-5,-2,0,-1,0,0,-4,-4
1.59101170289262e+15,3,1,1,-3,-1,-1,2,6
1.59101170289358e+15,-2,-1,-1,-1,-3,-3,1,-7
1.59101170289358e+15,-4,-2,-2,-1,-1,-1,-3,-4
1.59101170290758e+15,-1,-1,-2,-4,-3,-3,-1,3
1.59101170290758e+15,7,3,1,-3,1,1,1,9
1.59101170290854e+15,-1,-2,-2,-2,0,0,-1,-6
1.59101170290854e+15,-1,-1,1,0,-1,-1,1,-9
1.5910117029375e+15,-6,-1,-2,1,-2,-2,2,-3
1.5910117029375e+15,-8,-2,-2,-1,0,0,-3,-3
1.59101170293846e+15,-12,-2,-5,-1,2,2,-3,-3
1.59101170293846e+15,-2,-4,-5,-2,-2,-2,-6,-6
1.59101170295342e+15,0,2,4,-1,1,1,1,8
1.59101170295342e+15,1,1,1,1,-5,-5,1,7
1.59101170295442e+15,-2,0,1,0,1,1,-1,-3
1.59101170295442e+15,4,0,-1,-1,-4,-4,1,2
1.59101170296838e+15,1,0,-3,-1,2,2,1,-5
1.59101170296838e+15,-6,-2,-3,-1,-2,-2,0,-4
1.59101170296938e+15,-1,-2,-1,-2,-5,-5,-2,-2
1.59101170296938e+15,3,0,2,-2,-1,-1,-4,-1
1.59101170299033e+15,-2,-1,0,-2,-2,-2,-1,-1
1.59101170299033e+15,-2,1,-1,1,1,1,-3,-1
1.59101170299132e+15,-3,0,2,2,0,0,0,-4
1.59101170299132e+15,3,-2,-5,-1,-5,-5,-4,-2
1.5910117030123e+15,-5,-4,-1,-1,0,0,-1,-20
1.5910117030123e+15,3,0,-4,-4,0,0,1,0
1.59101170301326e+15,13,2,-2,-3,-1,-1,1,9
1.59101170301326e+15,-7,-1,-1,0,-1,-1,-3,7
1.59101170302726e+15,-6,-2,-1,0,-3,-3,-4,-2
1.59101170302726e+15,-3,-2,-4,-2,-2,-2,-3,-5
1.59101170302826e+15,-6,-3,0,-1,1,1,-2,-18
1.59101170302826e+15,1,1,-1,0,1,1,2,1
1.59101170305017e+15,5,1,-3,-3,-1,-1,1,7
1.59101170305017e+15,0,-2,-3,-3,1,1,-2,-4
1.59101170305117e+15,1,-1,-1,-4,-2,-2,-2,3
1.59101170305117e+15,-1,2,0,-1,-2,-2,-1,6
1.5910117030731e+15,2,2,2,4,2,2,0,-2
1.5910117030731e+15,-5,-2,-2,-3,-4,-4,1,-2
1.5910117030741e+15,2,2,2,0,1,1,0,1
1.5910117030741e+15,-1,-2,-3,-5,-2,-2,-3,-3
1.59101170308709e+15,1,1,-1,-1,0,0,1,3
1.59101170308709e+15,-3,1,3,1,-1,-1,-2,2
1.59101170308806e+15,-2,-2,-3,-1,-3,-3,-3,-5
1.59101170308806e+15,5,3,2,-1,0,0,3,7
1.59101170311027e+15,-9,-4,-1,-4,-4,-4,-3,-3
1.59101170311027e+15,0,0,-2,-1,2,2,-4,-4
1.59101170311124e+15,-3,-1,3,-1,-1,-1,0,-9
1.59101170311124e+15,8,1,-1,0,0,0,-1,-2
1.59101170313318e+15,5,2,1,-1,1,1,2,-2
1.59101170313318e+15,-5,-1,-4,0,-5,-5,1,7
1.59101170313417e+15,-2,-2,0,0,-4,-4,-2,-4
1.59101170313417e+15,-7,-2,-4,0,0,0,-1,-3
1.59101170314714e+15,-2,-1,-1,-1,-1,-1,-1,-3
1.59101170314714e+15,1,0,2,0,1,1,-6,-1
1.59101170314814e+15,1,2,-2,0,0,0,2,10
1.59101170314814e+15,-5,-2,1,-2,-2,-2,0,-3
1.59101170317012e+15,-7,-2,-4,0,-2,-2,0,-3
1.59101170317012e+15,-5,0,-5,0,1,1,2,1
1.59101170317108e+15,-1,0,2,1,-1,-1,-1,-6
1.59101170317108e+15,-2,1,-2,-1,0,0,-1,7
1.59101170319306e+15,-5,-1,1,-1,-2,-2,-2,2
1.59101170319306e+15,-1,0,0,-1,-1,-1,-1,-2
1.59101170319401e+15,5,2,4,0,0,0,-5,3
1.59101170319401e+15,-11,-5,-6,0,-1,-1,-5,-9
1.59101170320702e+15,10,1,1,-1,-1,-1,-4,2
1.59101170320702e+15,0,1,0,1,0,0,-2,0
1.591011703215e+15,-3,-1,-4,-1,0,0,1,-4
1.591011703215e+15,-1,0,2,0,-3,-3,3,-4
1.59101170323092e+15,2,1,-1,-1,2,2,0,2
1.59101170323092e+15,2,-1,-3,-3,-3,-3,0,-3
1.59101170323092e+15,1,0,-3,-1,1,1,1,0
1.59101170323092e+15,2,-2,-1,-3,-2,-2,-2,-9
1.59101170325287e+15,-3,-2,-3,-3,0,0,-2,-3
1.59101170325287e+15,2,-1,-1,-2,-2,-2,1,1
1.59101170325385e+15,-2,-1,-2,-2,-1,-1,-4,-1
1.59101170325385e+15,-4,-1,0,0,0,0,-2,4
1.59101170326683e+15,-1,-3,0,-5,-3,-3,-3,-11
1.59101170326683e+15,-4,-2,-3,-3,-1,-1,-3,2
1.59101170327485e+15,-13,0,3,2,1,1,2,0
1.59101170327485e+15,0,1,-2,0,1,1,0,1
1.59101170329076e+15,7,-1,-1,-2,-4,-4,-2,-5
1.59101170329076e+15,-5,0,0,-2,2,2,-1,3
1.59101170329076e+15,3,0,-4,-2,-3,-3,0,5
1.59101170329076e+15,-5,-3,-2,-1,-2,-2,-2,-10
1.5910117033127e+15,0,0,1,0,-1,-1,-1,1
1.5910117033127e+15,1,-2,1,0,-5,-5,-2,-8
1.5910117033137e+15,3,0,-2,0,1,1,-1,4
1.5910117033137e+15,5,1,0,-1,1,1,-1,1
1.59101170332666e+15,0,1,-1,0,1,1,-1,5
1.59101170332666e+15,-6,-3,-3,-1,-1,-1,-5,-7
1.59101170333464e+15,-8,-2,-2,-2,-1,-1,-1,-8
1.59101170333464e+15,2,-2,-2,-4,-3,-3,-2,-1
1.59101170335063e+15,-7,-3,-8,-3,-5,-5,-2,2
1.59101170335063e+15,1,1,1,0,1,1,4,1
1.5910117033516e+15,11,-1,-4,-4,-4,-4,-3,-2
1.5910117033516e+15,-5,1,3,3,2,2,1,-3
1.59101170337257e+15,4,1,-3,-4,-3,-3,-2,13
1.59101170337257e+15,-1,-1,-1,-3,-2,-2,1,-6
1.59101170337353e+15,8,0,0,-2,-1,-1,-5,1
1.59101170337353e+15,-5,0,1,-2,-2,-2,1,5
1.5910117033865e+15,-3,-2,-6,-1,1,1,-5,-5
1.5910117033865e+15,7,3,4,4,1,1,0,-1
1.59101170339451e+15,0,0,-1,-1,-3,-3,0,6
1.59101170339451e+15,2,1,-2,-2,2,2,0,-1
1.59101170341044e+15,-10,1,1,3,2,2,1,1
1.59101170341044e+15,2,2,-1,1,2,2,-1,9
1.59101170341145e+15,-3,-1,-1,-2,-1,-1,1,-1
1.59101170341145e+15,2,0,-1,-2,-2,-2,0,0
1.59101170343337e+15,-3,-2,0,-1,-2,-2,0,-10
1.59101170343337e+15,4,-1,0,-2,-2,-2,-2,1
1.59101170343337e+15,-9,1,4,0,-1,-1,4,3
1.59101170343337e+15,-3,-1,-2,-2,-1,-1,1,1
1.59101170344638e+15,7,0,0,-1,-2,-2,-1,-2
1.59101170344638e+15,-7,-1,-3,-2,0,0,-2,3
1.59101170345435e+15,-4,-3,0,-1,-2,-2,-2,-5
1.59101170345435e+15,-4,-2,-3,-3,-1,-1,-2,-4
1.59101170347027e+15,-2,-1,-1,0,-2,-2,-1,-1
1.59101170347027e+15,4,0,-1,-1,-3,-3,-3,-1
1.59101170347027e+15,0,-1,-3,-2,0,0,-2,-2
1.59101170347027e+15,13,3,5,-1,-2,-2,-3,3
1.59101170349325e+15,-2,3,0,-1,3,3,6,9
1.59101170349325e+15,-2,0,3,-1,-2,-2,0,-3
1.59101170349421e+15,-7,-2,-2,1,0,0,-1,-7
1.59101170349421e+15,0,0,1,0,-1,-1,0,-1
1.59101170351615e+15,-3,-1,2,0,0,0,-1,-4
1.59101170351615e+15,0,-3,-6,-1,0,0,-7,-10
1.59101170351615e+15,-5,-1,-2,-3,0,0,2,6
1.59101170351615e+15,1,-1,1,-1,-2,-2,-9,-2
1.59101170353014e+15,-2,-1,-5,-2,-2,-2,-4,2
1.59101170353014e+15,-3,-2,-3,-1,-4,-4,-1,-2
1.59101170353014e+15,-2,-1,-4,0,0,0,-1,-1
1.59101170353014e+15,-2,-1,-5,-3,2,2,1,-2
1.59101170355309e+15,-3,-3,2,-2,-3,-3,-4,-7
1.59101170355309e+15,-3,-1,-3,-2,0,0,-1,-1
1.59101170355409e+15,5,1,2,0,-2,-2,-2,-3
1.59101170355409e+15,-7,-2,-1,1,0,0,0,-10
1.59101170357506e+15,9,5,2,1,-1,-1,-1,18
1.59101170357506e+15,9,1,-1,0,-1,-1,2,0
1.59101170357599e+15,-3,0,-2,-1,1,1,0,3
1.59101170357599e+15,-3,0,0,1,1,1,-2,-4
1.59101170358995e+15,-1,-2,-1,0,-2,-2,-2,-10
1.59101170358995e+15,-2,-4,-2,-3,-5,-5,-3,-14
1.59101170359098e+15,6,3,-1,-1,2,2,3,12
1.59101170359098e+15,-2,-2,-4,-3,-3,-3,-2,3
1.59101170361263e+15,-2,-3,-4,-5,-3,-3,-3,-8
1.59101170361263e+15,-9,-1,0,-3,-1,-1,0,3
1.59101170361358e+15,-1,-1,-1,0,-1,-1,-3,-4
1.59101170361358e+15,3,1,-1,0,0,0,1,2
1.59101170363555e+15,-10,-3,-2,-2,0,0,-1,-1
1.59101170363555e+15,0,1,3,3,0,0,-1,-2
1.59101170363654e+15,-4,-5,-4,-2,-3,-3,-4,-18
1.59101170363654e+15,6,1,-7,-3,-2,-2,0,11
1.59101170364948e+15,9,2,2,0,-2,-2,2,-2
1.59101170364948e+15,-5,0,1,-1,0,0,-1,3
1.59101170365048e+15,-4,-3,0,-1,-5,-5,-3,-7
1.59101170365048e+15,-2,1,-1,2,2,2,2,0
1.59101170368044e+15,-4,0,-2,-2,1,1,1,4
1.59101170368044e+15,-4,0,-4,0,2,2,0,1
1.59101170368139e+15,3,1,0,-2,0,0,0,1
1.59101170368139e+15,-3,-1,-2,-3,-2,-2,-1,1
1.59101170369536e+15,-2,0,0,0,4,4,0,-3
1.59101170369536e+15,-6,-4,4,-5,-6,-6,-1,-16
1.59101170369636e+15,-3,-1,-3,-2,-1,-1,-1,4
1.59101170369636e+15,4,0,-4,0,-3,-3,0,-3
1.59101170371076e+15,1,0,1,0,-1,-1,-1,-2
1.59101170371076e+15,4,0,-3,-1,1,1,-3,1
1.59101170371175e+15,-3,-2,-2,-1,0,0,-4,-4
1.59101170371175e+15,-5,1,1,-1,1,1,1,5
1.5910117037327e+15,1,1,1,0,-3,-3,-2,2
1.5910117037327e+15,-11,-2,-5,-2,-2,-2,1,6
1.59101170373369e+15,4,-2,-3,-4,-6,-6,-5,-3
1.59101170373369e+15,4,2,4,-2,2,2,2,4
1.59101170375564e+15,-6,-2,-5,-2,-2,-2,0,-2
1.59101170375564e+15,3,2,0,-1,0,0,0,0
1.59101170375665e+15,-5,1,-3,2,4,4,1,3
1.59101170375665e+15,-8,-4,-1,-2,-5,-5,-4,-10
1.5910117037696e+15,1,0,-2,-2,0,0,-1,6
1.5910117037696e+15,2,-1,-2,-1,-1,-1,-1,-1
1.5910117037706e+15,0,2,1,0,-2,-2,3,7
1.5910117037706e+15,-2,-2,3,-2,-1,-1,-3,-7
1.59101170379353e+15,2,-1,-7,-1,-1,-1,1,1
1.59101170379353e+15,0,-1,-3,-2,-2,-2,-2,-2
1.59101170379453e+15,1,0,2,0,-1,-1,-4,-2
1.59101170379453e+15,0,1,0,0,0,0,-2,2
1.59101170381552e+15,-2,-1,1,-1,-1,-1,0,-2
1.59101170381552e+15,0,1,-2,1,-1,-1,-3,4
1.59101170381648e+15,-1,-1,1,-1,0,0,0,-5
1.59101170381648e+15,-6,-4,-2,-1,-3,-3,-8,-5
1.59101170382948e+15,10,2,4,1,1,1,-2,-3
1.59101170382948e+15,-3,-1,0,1,-3,-3,2,-5
1.59101170383742e+15,-2,1,-3,-1,2,2,1,2
1.59101170383742e+15,0,0,0,-1,-2,-2,1,-4
1.59101170385342e+15,-2,-2,-2,-2,-1,-1,-1,1
1.59101170385342e+15,4,0,-2,-2,-1,-1,-3,-3
1.59101170385439e+15,-3,-3,0,-1,0,0,-3,-17
1.59101170385439e+15,0,1,-2,-4,-1,-1,0,9
1.59101170387536e+15,-8,-3,1,0,-1,-1,-4,-9
1.59101170387536e+15,-1,0,-3,0,0,0,-2,4
1.59101170388929e+15,13,0,-5,-4,-2,-2,-3,1
1.59101170388929e+15,-10,-4,-3,0,-1,-1,-3,-10
1.59101170389028e+15,-6,-1,0,0,-4,-4,0,-1
1.59101170389028e+15,-1,2,2,0,0,0,2,4
1.59101170389826e+15,2,1,-1,-2,-2,-2,-2,14
1.59101170389826e+15,-1,-1,1,-2,-3,-3,1,-3
1.59101170391322e+15,-12,-4,-3,-4,-1,-1,0,-11
1.59101170391322e+15,11,5,0,2,2,2,2,16
1.59101170391524e+15,-11,-4,-2,-2,-3,-3,0,-14
1.59101170391524e+15,-1,1,0,0,4,4,0,1
1.59101170393516e+15,-3,-2,-4,-2,-1,-1,-3,-5
1.59101170393516e+15,1,3,-1,-1,1,1,1,16
1.59101170394314e+15,3,0,-2,-3,-4,-4,1,2
1.59101170394314e+15,-1,0,-7,1,-1,-1,1,1
1.59101170394913e+15,1,-1,1,-5,-3,-3,-1,-1
1.59101170394913e+15,-3,-2,2,-1,-2,-2,-3,-8
1.5910117039581e+15,0,1,1,-2,-2,-2,-1,2
1.5910117039581e+15,-5,-2,-2,-2,-2,-2,-2,-3
1.59101170397308e+15,2,1,1,1,-1,-1,-3,-1
1.59101170397308e+15,-4,-1,-4,-4,-2,-2,3,-5
1.59101170397406e+15,-2,2,2,2,3,3,-5,7
1.59101170397406e+15,-1,0,-4,-1,-1,-1,1,5
1.59101170400299e+15,-1,0,-2,-2,1,1,0,4
1.59101170400299e+15,-4,-1,1,-2,0,0,-2,-6
1.59101170400498e+15,0,0,-1,1,0,0,-1,-5
1.59101170400498e+15,-3,-3,-4,-3,-1,-1,-2,-8
1.59101170400897e+15,4,1,-2,0,-1,-1,1,0
1.59101170400897e+15,-3,-1,0,0,-1,-1,-5,4
1.59101170402593e+15,-1,-1,0,-4,-2,-2,1,-2
1.59101170402593e+15,3,1,2,2,2,2,-2,-4
1.59101170403291e+15,-2,-1,-4,1,0,0,-2,2
1.59101170403291e+15,-4,-5,-2,-1,-3,-3,-4,-20
1.5910117040349e+15,-2,-2,-7,-4,-3,-3,0,3
1.5910117040349e+15,5,1,1,2,-1,-1,0,0
1.59101170405585e+15,-10,0,4,2,0,0,-1,0
1.59101170405585e+15,-3,-1,-1,0,-1,-1,-3,-5
1.59101170405684e+15,-1,0,0,-2,0,0,0,-2
1.59101170405684e+15,0,0,1,-3,-2,-2,0,0
1.59101170406885e+15,4,-1,-2,-1,-3,-3,0,-3
1.59101170406885e+15,-5,-2,-3,0,0,0,-1,-6
1.59101170407779e+15,-7,-4,-3,-3,-4,-4,0,-12
1.59101170407779e+15,0,-1,-2,-2,-4,-4,-5,4
1.59101170409278e+15,-9,-1,-3,-2,0,0,-1,3
1.59101170409278e+15,-3,-2,1,-2,-3,-3,1,-5
1.59101170409474e+15,-3,0,-1,0,2,2,0,-2
1.59101170409474e+15,1,0,-1,-3,1,1,2,-3
1.59101170411569e+15,-2,-2,-3,-2,-5,-5,-3,-2
1.59101170411569e+15,5,1,-4,-1,1,1,-6,10
1.59101170411668e+15,-2,-2,-4,-6,-4,-4,-3,3
1.59101170411668e+15,-9,-1,-5,-1,1,1,2,-3
1.59101170412868e+15,6,2,4,1,0,0,3,-2
1.59101170412868e+15,2,-2,0,-2,2,2,-4,-6
1.59101170413763e+15,-12,1,8,2,1,1,0,0
1.59101170413763e+15,1,-1,-1,0,-2,-2,-1,0
1.59101170415259e+15,-2,-1,-6,-2,-1,-1,-1,0
1.59101170415259e+15,1,2,-5,1,-2,-2,3,14
1.59101170416057e+15,0,-2,-4,-4,-3,-3,-3,0
1.59101170416057e+15,5,2,5,1,1,1,-1,0
1.59101170417553e+15,-18,-6,-6,-4,-3,-3,-3,-3
1.59101170417553e+15,5,1,1,-2,-3,-3,-3,3
1.59101170417752e+15,2,1,-2,0,-3,-3,-2,2
1.59101170417752e+15,-5,-1,3,-1,-3,-3,-2,-3
1.59101170418949e+15,7,1,-4,0,-1,-1,0,2
1.59101170418949e+15,-1,0,3,-1,-1,-1,2,-3
1.5910117041985e+15,-4,-2,-3,0,-1,-1,3,-7
1.5910117041985e+15,2,-1,-4,0,-4,-4,-2,1
1.59101170421344e+15,-4,-1,-2,0,-1,-1,-2,-4
1.59101170421344e+15,1,0,-6,-3,1,1,2,4
1.59101170421442e+15,-5,0,-1,4,1,1,-1,-4
1.59101170421442e+15,-3,0,-1,1,1,1,0,-3
1.59101170423588e+15,5,1,2,-2,-2,-2,-1,-1
1.59101170423588e+15,-4,-1,1,-2,-3,-3,1,-6
1.59101170423688e+15,-3,0,0,-1,0,0,-1,0
1.59101170423688e+15,12,2,3,-1,-3,-3,2,-3
1.59101170424884e+15,3,0,-4,-2,0,0,-3,7
1.59101170424884e+15,-1,0,2,-1,0,0,2,-4
1.59101170425783e+15,1,-2,-1,-1,-1,-1,-6,-1
1.59101170425783e+15,-2,0,-2,-2,0,0,-2,4
1.59101170427281e+15,-2,-1,3,1,-1,-1,-3,-11
1.59101170427281e+15,-4,-1,-2,0,0,0,2,-5
1.59101170427477e+15,5,0,-1,-2,-1,-1,-2,0
1.59101170427477e+15,0,1,0,0,-1,-1,-3,7
1.59101170429572e+15,0,0,-1,-2,-2,-2,2,0
1.59101170429572e+15,3,1,-3,-3,-1,-1,1,8
1.59101170429771e+15,0,1,0,-1,-3,-3,1,4
1.59101170429771e+15,-10,-4,-4,-2,-1,-1,-1,-15
1.59101170430868e+15,1,0,0,0,0,0,-2,0
1.59101170430868e+15,-8,-3,-3,-2,-4,-4,-4,-4
1.59101170432465e+15,6,2,1,-2,-1,-1,2,5
1.59101170432465e+15,-5,-2,0,-2,-2,-2,-1,-5
1.59101170433265e+15,0,2,0,1,2,2,-1,1
1.59101170433265e+15,4,-1,-4,0,-2,-2,-1,0
1.59101170433462e+15,2,0,-2,0,2,2,-1,-1
1.59101170433462e+15,-3,-3,-8,-2,-1,-1,-2,-3
1.5910117043556e+15,4,0,2,-3,0,0,0,-3
1.5910117043556e+15,2,1,3,1,-2,-2,-1,-1
1.59101170435755e+15,-6,-2,-1,1,0,0,-4,-4
1.59101170435755e+15,3,-2,-4,-3,-1,-1,-2,-7
1.59101170436852e+15,1,-1,-2,-1,-3,-3,-5,5
1.59101170436852e+15,6,0,-2,-3,-1,-1,-1,-4
1.5910117043785e+15,-2,-1,-5,-1,-1,-1,2,-3
1.5910117043785e+15,-2,0,0,0,1,1,-1,-2
1.59101170439246e+15,-4,-1,0,1,0,0,-3,-6
1.59101170439246e+15,-1,0,2,-2,1,1,-2,-4
1.59101170439445e+15,-13,-4,-1,-3,-3,-3,-3,-5
1.59101170439445e+15,2,0,-2,-1,-1,-1,1,4
1.59101170441543e+15,0,-1,-2,0,-2,-2,0,-1
1.59101170441543e+15,-12,-2,-2,0,-1,-1,-2,-4
1.5910117044174e+15,6,1,-1,-1,-1,-1,0,-1
1.5910117044174e+15,-2,0,-2,-1,-2,-2,-1,2
1.59101170443837e+15,-1,0,3,-2,-1,-1,-1,-1
1.59101170443837e+15,-11,-5,-2,-6,-2,-2,-3,-10
1.59101170443934e+15,0,0,-1,-3,-1,-1,1,4
1.59101170443934e+15,-2,-1,-2,-4,-3,-3,1,3
1.5910117044533e+15,3,-1,0,-1,-2,-2,1,-7
1.5910117044533e+15,0,-1,-5,1,-1,-1,-5,-1
1.59101170446626e+15,2,-2,-5,-1,0,0,-3,-3
1.59101170446626e+15,-5,-2,-1,0,-1,-1,-4,-4
1.59101170447524e+15,2,1,-1,-1,-1,-1,0,3
1.59101170447524e+15,-8,-3,-3,-5,-1,-1,-2,-3
1.59101170447723e+15,0,1,2,1,-3,-3,-1,2
1.59101170447723e+15,0,-1,-2,-2,-2,-2,-1,3
1.59101170449821e+15,-2,-1,-3,-2,1,1,-1,-3
1.59101170449821e+15,-1,0,0,-1,-3,-3,0,1
1.59101170450017e+15,-2,-1,-4,-2,-2,-2,0,-1
1.59101170450017e+15,-8,-1,-2,-2,2,2,-2,0
1.59101170451317e+15,-4,-1,-4,-1,-4,-4,-1,4
1.59101170451317e+15,-2,3,7,3,1,1,4,9
1.59101170451417e+15,1,-1,-4,-2,0,0,-5,0
1.59101170451417e+15,-3,-1,2,0,-3,-3,0,-4
1.59101170453514e+15,-5,-2,-2,-2,-2,-2,-4,2
1.59101170453514e+15,11,1,-4,-1,-1,-1,2,-5
1.59101170453707e+15,4,0,-1,-1,-2,-2,2,1
1.59101170453707e+15,-1,0,0,-1,-1,-1,-1,-1
1.59101170455816e+15,-4,-1,-2,0,0,0,0,0
1.59101170455816e+15,3,0,2,-2,-1,-1,-2,-3
1.59101170456403e+15,-1,-1,1,-1,-1,-1,-1,-3
1.59101170456403e+15,2,0,-2,0,-1,-1,0,-3
1.59101170457198e+15,-6,-3,-3,-4,-3,-3,-2,-5
1.59101170457198e+15,-2,-1,-5,0,0,0,-2,1
1.59101170458096e+15,-4,-1,0,-2,0,0,1,-5
1.59101170458096e+15,3,0,0,-2,-1,-1,-4,-6
1.59101170459502e+15,6,2,-1,0,0,0,-2,9
1.59101170459502e+15,10,1,-3,-2,-1,-1,-2,5
1.5910117046019e+15,-7,-4,0,-1,-1,-1,-5,-11
1.5910117046019e+15,5,1,0,-2,-2,-2,-1,1
1.59101170461888e+15,-7,-1,0,-1,-1,-1,3,0
1.59101170461888e+15,-3,-2,-3,-3,-1,-1,-1,-4
1.59101170462385e+15,8,4,0,-1,-1,-1,2,14
1.59101170462385e+15,-6,0,0,1,-1,-1,-1,2
1.59101170463182e+15,2,1,-1,-3,1,1,-2,0
1.59101170463182e+15,-2,0,1,0,-1,-1,-1,0
1.59101170464678e+15,0,-1,-3,1,0,0,-3,-4
1.59101170464678e+15,0,1,-2,1,-1,-1,-1,6
1.59101170465575e+15,-5,-3,2,0,-1,-1,-2,-16
1.59101170465575e+15,2,3,0,-1,-1,-1,0,13
1.59101170465775e+15,-4,-2,-1,-2,-1,-1,-4,-5
1.59101170465775e+15,1,-1,1,-1,-2,-2,-2,2
1.5910117046777e+15,0,-1,1,0,0,0,-1,-12
1.5910117046777e+15,-5,-3,-6,-5,-4,-4,-3,-2
1.5910117046797e+15,13,0,-2,-1,-1,-1,0,-7
1.5910117046797e+15,-2,0,0,0,0,0,-2,2
1.59101170469266e+15,-3,0,4,-2,-2,-2,0,1
1.59101170469266e+15,-5,-3,0,-2,-2,-2,-2,-6
1.59101170469864e+15,-6,-2,-3,-4,-1,-1,-2,0
1.59101170469864e+15,-1,-2,0,-2,-3,-3,-3,-7
1.59101170471559e+15,-3,-3,-11,-2,1,1,-1,-2
1.59101170471559e+15,1,-1,-1,1,-2,-2,-4,-5
1.59101170471659e+15,-7,2,0,1,1,1,3,13
1.59101170471659e+15,1,-1,0,-3,-2,-2,-1,-3
1.59101170473864e+15,4,-1,-1,-1,-5,-5,-1,-3
1.59101170473864e+15,-7,-2,-3,-1,-1,-1,-2,-2
1.59101170474053e+15,-3,0,1,0,1,1,-3,-3
1.59101170474053e+15,4,2,-1,-1,1,1,1,-1
1.5910117047525e+15,-1,-1,0,-3,-4,-4,1,1
1.5910117047525e+15,18,3,5,1,0,0,0,-3
1.59101170475958e+15,-12,-1,4,0,0,0,1,-4
1.59101170475958e+15,0,1,0,-1,-1,-1,0,3
1.59101170477543e+15,5,1,2,-4,-2,-2,-3,3
1.59101170477543e+15,-5,-2,-1,-3,0,0,0,-4
1.59101170477743e+15,0,-1,-3,-1,0,0,-3,0
1.59101170477743e+15,-2,-1,-4,-3,-1,-1,0,-4
1.59101170479837e+15,-1,-1,-1,0,-1,-1,-3,-3
1.59101170479837e+15,-9,-2,-6,-2,0,0,1,-1
1.59101170479937e+15,-1,0,3,-1,-1,-1,2,-3
1.59101170479937e+15,-6,0,-5,1,0,0,-3,6
1.59101170481234e+15,4,1,0,0,-1,-1,0,3
1.59101170481234e+15,1,-1,-1,-1,-1,-1,-1,-8
1.59101170481937e+15,-4,-2,-2,-2,-6,-6,1,1
1.59101170481937e+15,-12,-3,4,-3,2,2,-2,-7
1.59101170483527e+15,-3,-1,-1,1,2,2,-7,-3
1.59101170483527e+15,-4,0,-1,1,-1,-1,-3,5
1.59101170483727e+15,2,1,1,2,0,0,-2,-4
1.59101170483727e+15,-7,-2,1,-2,-3,-3,-2,-4
1.5910117048583e+15,-1,0,-3,2,1,1,-1,1
1.5910117048583e+15,1,-1,3,-2,-1,-1,-1,-6
1.59101170485924e+15,0,-1,-3,-1,-1,-1,-1,2
1.59101170485924e+15,-2,-1,-5,-1,-3,-3,-2,2
1.59101170487218e+15,0,-1,-2,-2,0,0,-2,1
1.59101170487218e+15,-5,-1,0,0,0,0,0,1
1.59101170487916e+15,-3,-1,-5,-3,1,1,3,-1
1.59101170487916e+15,9,1,-2,-2,-4,-4,-4,5
1.59101170489616e+15,-2,1,0,1,2,2,3,1
1.59101170489616e+15,7,1,0,0,-4,-4,-6,11
1.59101170490911e+15,9,0,-1,-1,-2,-2,-4,-4
1.59101170490911e+15,-1,-2,-2,-1,0,0,-2,-6
1.59101170491843e+15,-1,0,-2,-4,0,0,2,3
1.59101170491843e+15,-3,-1,-1,0,-1,-1,0,-6
1.59101170491937e+15,-7,-2,-1,-2,-3,-3,-2,-3
1.59101170491937e+15,0,-1,-2,0,-1,-1,-4,-4
1.59101170493234e+15,2,1,1,1,-2,-2,-1,0
1.59101170493234e+15,-7,-2,-4,-3,-2,-2,2,-2
1.59101170494032e+15,3,0,3,0,-1,-1,-2,-5
1.59101170494032e+15,-5,0,1,-1,-1,-1,1,5
1.59101170495627e+15,-5,-3,-4,-5,-3,-3,-1,-2
1.59101170495627e+15,-3,2,-1,-2,1,1,3,7
1.59101170495827e+15,-1,-2,-2,-3,-3,-3,-2,-1
1.59101170495827e+15,4,0,1,1,-1,-1,-2,-6
1.59101170497826e+15,1,1,-2,0,-1,-1,1,7
1.59101170497826e+15,-9,-5,0,0,-5,-5,-5,-15
1.59101170497922e+15,14,4,-3,-1,1,1,0,10
1.59101170497922e+15,0,0,-2,-1,-4,-4,1,0
1.59101170499122e+15,-2,-1,-2,-2,0,0,1,-2
1.59101170499122e+15,4,0,-1,-2,-2,-2,2,-3
1.59101170500019e+15,-16,-3,2,1,-3,-3,-3,-9
1.59101170500019e+15,1,1,-4,-1,0,0,3,4
1.59101170501516e+15,1,-1,1,0,-3,-3,-4,-3
1.59101170501516e+15,-2,0,-5,-1,2,2,0,1
1.59101170501711e+15,0,0,-3,-2,1,1,0,-1
1.59101170501711e+15,-2,-2,-2,-2,-1,-1,-1,-6
1.59101170503816e+15,1,0,-2,-5,-2,-2,0,8
1.59101170503816e+15,-7,-1,-3,2,0,0,-2,-4
1.59101170504006e+15,3,2,-2,0,-1,-1,3,9
1.59101170504006e+15,-5,-4,-3,-3,0,0,-2,-16
1.59101170505202e+15,-6,-2,-1,-1,0,0,0,-1
1.59101170505202e+15,-8,1,7,0,0,0,0,4
1.591011705061e+15,0,-1,-2,-1,-4,-4,-2,3
1.591011705061e+15,-3,-2,-3,-2,-1,-1,-2,-6
1.59101170507595e+15,0,-1,1,-1,0,0,-3,-3
1.59101170507595e+15,-3,1,2,2,0,0,-3,-2
1.59101170508194e+15,-6,0,0,1,2,2,1,-4
1.59101170508194e+15,4,2,1,0,0,0,1,9
1.59101170509794e+15,-6,-3,-4,-2,-1,-1,-3,-8
1.59101170509794e+15,2,-1,-2,-3,-2,-2,0,1
1.59101170509989e+15,0,-2,0,-2,-3,-3,-4,-7
1.59101170509989e+15,5,4,-1,1,2,2,1,20
1.59101170511191e+15,2,-1,-4,-2,-1,-1,1,1
1.59101170511191e+15,5,-2,-4,-3,-2,-2,-1,-5
1.59101170512084e+15,-5,-1,-1,-1,0,0,-1,3
1.59101170512084e+15,-1,-1,2,-3,-2,-2,0,-3
1.5910117051358e+15,-3,1,-2,-2,2,2,2,5
1.5910117051358e+15,-6,-6,-6,-4,-6,-6,-8,-14
1.59101170513779e+15,14,3,2,1,1,1,1,-2
1.59101170513779e+15,-7,-5,-3,-2,-4,-4,-2,-14
1.59101170515877e+15,3,2,2,-3,-1,-1,1,11
1.59101170515877e+15,0,-1,-2,-3,2,2,-2,-4
1.59101170515973e+15,-10,-3,-2,-1,0,0,-4,-2
1.59101170515973e+15,2,0,1,-1,-4,-4,-2,0
1.59101170517175e+15,-2,-1,-5,-1,0,0,-2,-6
1.59101170517175e+15,0,1,-2,0,-2,-2,2,6
1.59101170518068e+15,-2,-2,-1,-3,-4,-4,0,-5
1.59101170518068e+15,1,1,-2,0,5,5,-1,4
1.59101170519563e+15,-3,-3,-1,-2,-3,-3,-4,-10
1.59101170519563e+15,4,1,-1,0,-2,-2,-1,6
1.59101170519763e+15,2,-1,-3,-4,0,0,0,-6
1.59101170519763e+15,-5,-4,0,-4,-4,-4,-2,-8
1.59101170521758e+15,-1,0,2,2,-2,-2,-1,-2
1.59101170521758e+15,0,-2,-4,0,-2,-2,-2,-11
1.59101170521957e+15,9,5,6,3,1,1,5,3
1.59101170521957e+15,7,2,2,-1,0,0,1,-1
1.59101170523158e+15,-7,-4,-6,-3,-4,-4,-7,-6
1.59101170523158e+15,0,0,1,0,0,0,-1,0
1.59101170524051e+15,-14,-3,-3,-1,-1,-1,-1,-2
1.59101170524051e+15,1,0,-2,1,0,0,-4,0
1.59101170525567e+15,1,0,3,0,-2,-2,0,-5
1.59101170525567e+15,4,0,0,-1,0,0,-1,-4
1.59101170525748e+15,-4,-4,-4,-4,-2,-2,-6,-9
1.59101170525748e+15,-2,2,-3,1,1,1,2,12
1.59101170527868e+15,-2,0,-1,1,0,0,0,3
1.59101170527868e+15,-2,-2,-2,-2,-3,-3,-1,2
1.59101170527942e+15,-1,-1,-2,-1,0,0,-1,1
1.59101170527942e+15,0,-1,0,-2,-3,-3,-2,-5
1.59101170529257e+15,2,-1,-1,1,-3,-3,1,-5
1.59101170529257e+15,-5,0,-1,-2,1,1,2,4
1.59101170530035e+15,0,-1,-1,-1,-2,-2,-5,5
1.59101170530035e+15,0,-2,2,-2,-1,-1,-2,-5
1.59101170531551e+15,-4,-5,-7,-9,-2,-2,-3,-6
1.59101170531551e+15,-1,1,-1,0,2,2,0,8
1.59101170531731e+15,-4,-2,2,0,0,0,-2,-8
1.59101170531731e+15,-5,-2,-3,-1,-2,-2,1,-3
1.59101170533825e+15,-3,0,1,-1,1,1,0,-3
1.59101170533825e+15,0,-1,-3,-2,-2,-2,0,0
1.59101170533925e+15,-3,2,-3,2,4,4,-2,9
1.59101170533925e+15,6,-1,-5,-3,0,0,-4,-1
1.59101170535127e+15,-5,2,1,2,1,1,2,2
1.59101170535127e+15,-2,-2,0,-1,-1,-1,-1,-7
1.59101170536044e+15,9,2,-2,-2,-3,-3,-3,12
1.59101170536044e+15,-4,-1,2,1,-1,-1,-2,-5
1.59101170537534e+15,5,3,4,1,-1,-1,-1,3
1.59101170537534e+15,-5,-1,-1,-2,0,0,-1,-4
1.59101170537716e+15,-4,-1,-3,-1,-2,-2,2,-2
1.59101170537716e+15,-1,1,0,3,-1,-1,1,-3
1.59101170539836e+15,7,1,2,0,0,0,-6,-1
1.59101170539836e+15,1,-4,-5,-5,-5,-5,-3,-12
1.59101170540009e+15,-7,-1,-1,-3,-2,-2,-1,2
1.59101170540009e+15,-1,0,-4,1,0,0,1,1
1.59101170542013e+15,0,-2,-1,-2,-4,-4,-2,-7
1.59101170542013e+15,-7,-1,1,-1,0,0,-1,-1
1.59101170542209e+15,2,-1,0,-1,-3,-3,0,-2
1.59101170542209e+15,-5,-2,-2,-2,0,0,0,-5
1.59101170543632e+15,1,2,0,1,1,1,2,2
1.59101170543632e+15,1,-1,0,1,1,1,-2,-7
1.59101170543705e+15,-1,1,2,-2,-1,-1,1,3
1.59101170543705e+15,-4,-1,-6,-2,-1,-1,1,2
1.59101170545812e+15,-7,-2,0,-3,-3,-3,-1,-5
1.59101170545812e+15,4,2,0,0,-1,-1,0,9
1.59101170545998e+15,6,0,2,1,-2,-2,-4,-5
1.59101170545998e+15,-2,-1,-2,-1,1,1,-3,0
1.59101170547993e+15,2,2,1,0,-1,-1,1,8
1.59101170547993e+15,-3,-1,-4,-3,-2,-2,0,3
1.59101170548791e+15,-6,-4,-5,-2,-2,-2,-2,-8
1.59101170548791e+15,-4,-1,1,2,-2,-2,-4,-2
1.59101170549398e+15,1,-2,-4,-2,-2,-2,-3,-1
1.59101170549398e+15,4,0,-5,0,-2,-2,1,-3
1.59101170550287e+15,-9,1,2,-1,2,2,-1,6
1.59101170550287e+15,-3,1,1,0,0,0,3,0
1.59101170551783e+15,-2,-2,-2,-1,0,0,0,-6
1.59101170551783e+15,1,0,2,1,-1,-1,0,-4
1.59101170551983e+15,2,-2,-4,-1,-4,-4,0,-7
1.59101170551983e+15,2,3,1,-2,0,0,4,13
1.59101170554082e+15,-2,1,0,-1,0,0,0,0
1.59101170554082e+15,-6,-1,-3,-1,-1,-1,0,3
1.59101170554176e+15,-4,-3,-1,-2,-3,-3,-9,-8
1.59101170554176e+15,-2,-2,-1,-3,-2,-2,-1,-3
1.59101170556371e+15,1,0,0,0,-2,-2,-1,1
1.59101170556371e+15,2,-2,2,0,-1,-1,-5,-14
1.59101170556969e+15,6,2,-5,-2,-2,-2,1,14
1.59101170556969e+15,-3,-1,-1,-2,0,0,-1,-1
1.59101170557772e+15,12,2,1,0,0,0,-2,-3
1.59101170557772e+15,-4,-1,0,-1,-2,-2,-1,1
1.59101170557971e+15,-3,-1,-3,-1,-1,-1,2,-4
1.59101170557971e+15,-7,-3,0,-3,-2,-2,-3,-5
1.59101170560064e+15,-3,0,-2,2,0,0,2,0
1.59101170560064e+15,4,3,2,0,2,2,-3,11
1.5910117056026e+15,-7,-4,-2,-1,-2,-2,0,-13
1.5910117056026e+15,0,-2,-4,-4,-3,-3,-3,-4
1.59101170561473e+15,-5,-1,1,-1,1,1,-2,-3
1.59101170561473e+15,-2,-1,-2,-3,-4,-4,-2,2
1.59101170562155e+15,2,1,1,2,3,3,-1,-2
1.59101170562155e+15,-3,-4,0,-3,-3,-3,-1,-13
1.59101170563853e+15,-4,0,-3,-3,-4,-4,2,10
1.59101170563853e+15,-3,-2,-4,-3,-1,-1,0,-8
1.5910117056395e+15,0,1,1,0,-1,-1,1,0
1.5910117056395e+15,-1,0,0,0,-1,-1,0,-4
1.59101170566045e+15,7,1,-1,-2,-4,-4,-1,4
1.59101170566045e+15,-6,-1,0,-1,-1,-1,-3,0
1.59101170566244e+15,-1,-1,-1,-4,-1,-1,0,1
1.59101170566244e+15,0,0,-1,-1,-1,-1,-1,3
1.59101170567541e+15,-4,-2,1,0,0,0,-3,-7
1.59101170567541e+15,2,0,3,-1,-4,-4,0,-1
1.59101170568145e+15,-5,-2,-3,0,-2,-2,-1,-2
1.59101170568145e+15,0,2,2,0,0,0,1,4
1.59101170569776e+15,-1,-1,-4,-2,-1,-1,-1,1
1.59101170569776e+15,-2,0,-1,-1,0,0,-2,2
1.59101170569972e+15,0,-1,0,0,-1,-1,0,-5
1.59101170569972e+15,-1,1,-2,0,-3,-3,1,11
1.59101170572071e+15,-3,-2,0,-3,0,0,-2,-7
1.59101170572071e+15,-1,0,0,-3,-1,-1,1,0
1.59101170572166e+15,-6,-3,-4,-2,-3,-3,0,-5
1.59101170572166e+15,2,1,-4,1,1,1,-1,7
1.59101170573467e+15,0,-3,-3,-4,-3,-3,-2,-8
1.59101170573467e+15,6,3,-2,2,-1,-1,0,10
1.5910117057436e+15,4,1,3,-1,-1,-1,0,-2
1.5910117057436e+15,-3,-2,-1,1,1,1,-4,-7
1.59101170575756e+15,-5,-1,0,2,-1,-1,0,2
1.59101170575756e+15,-4,-3,-3,-2,-1,-1,-2,-5
1.59101170575956e+15,3,-2,-2,-4,-4,-4,-4,1
1.59101170575956e+15,4,1,2,-2,-1,-1,-2,3
1.5910117057805e+15,-6,-3,-3,0,-1,-1,-2,-15
1.5910117057805e+15,1,5,3,1,0,0,3,22
1.59101170578249e+15,-6,-1,-6,0,-1,-1,-1,1
1.59101170578249e+15,2,-1,2,-1,-2,-2,-3,-4
1.59101170579446e+15,-2,-2,-3,-4,-4,-4,-4,-2
1.59101170579446e+15,-10,-3,3,1,2,2,-2,-12
1.59101170580145e+15,-6,-1,1,-2,0,0,-1,-1
1.59101170580145e+15,-4,1,0,0,-2,-2,1,3
1.59101170581741e+15,-4,-1,-2,-2,-3,-3,-2,1
1.59101170581741e+15,3,-1,-4,1,-2,-2,-2,-4
1.59101170581939e+15,3,1,3,0,0,0,1,1
1.59101170581939e+15,-3,-2,2,-3,0,0,-5,-13
1.59101170584142e+15,1,0,-2,-2,-3,-3,0,8
1.59101170584142e+15,1,-1,-4,-2,-3,-3,0,0
1.59101170585537e+15,-2,0,3,-2,0,0,0,-2
1.59101170585537e+15,2,-3,-3,2,-5,-5,0,-16
1.59101170585629e+15,12,7,4,0,4,4,1,24
1.59101170585629e+15,-8,-2,-1,-1,0,0,-2,-4
1.59101170586143e+15,-1,-1,-4,0,-2,-2,-1,-4
1.59101170586143e+15,0,0,-1,-2,1,1,1,0
1.59101170587825e+15,-7,-3,-4,-1,-4,-4,2,-6
1.59101170587825e+15,1,-1,0,-1,-1,-1,-1,-4
1.59101170589124e+15,1,0,0,-2,-2,-2,0,-2
1.59101170589124e+15,1,0,-2,-4,2,2,-1,1
1.59101170590022e+15,-7,-3,-4,-1,-1,-1,-3,-8
1.59101170590022e+15,-1,0,-1,-1,0,0,-3,3
1.59101170590218e+15,-1,-1,-2,1,-3,-3,-1,-4
1.59101170590218e+15,-4,-2,-4,-2,-1,-1,-1,2
1.59101170591388e+15,1,0,2,0,-2,-2,2,-1
1.59101170591388e+15,-1,-1,-8,-4,-2,-2,0,4
1.59101170592282e+15,5,4,3,1,2,2,-1,12
1.59101170592282e+15,-5,-3,-3,-2,-4,-4,-3,-4
1.59101170593781e+15,0,-2,-1,-2,-2,-2,-3,-8
1.59101170593781e+15,7,2,3,0,-3,-3,3,4
