TimeStamp,emg1,emg2,emg3,emg4,emg5,emg6,emg7,emg8
1.59101201042116e+15,0,1,0,0,0,0,2,2
1.59101201042116e+15,0,-0,-2,-1,0,0,-2,-1
1.59101201042216e+15,-4,-2,-2,-2,-3,-3,-2,-1
1.59101201042216e+15,-1,-0,-1,0,0,0,3,1
1.59101201042673e+15,0,-2,-2,-3,-2,-2,-4,0
1.59101201042673e+15,-1,1,-1,-1,-1,-1,2,3
1.59101201042773e+15,-2,-2,-1,-1,-1,-1,-4,-9
1.59101201042773e+15,-1,-0,-1,-1,-1,-1,4,-2
1.59101201043282e+15,-1,-1,-1,1,-1,-1,-2,-2
1.59101201043282e+15,0,-2,-3,-1,0,0,-7,-7
1.59101201043282e+15,0,-0,-3,0,0,0,-2,2
1.59101201043282e+15,-2,-1,-2,-2,-1,-1,-1,-1
1.59101201044373e+15,-1,1,2,0,2,2,2,2
1.59101201044373e+15,-2,-0,-1,-2,-1,-1,-3,1
1.59101201045574e+15,-1,-1,-2,-2,-1,-1,1,0
1.59101201045574e+15,-2,-3,-2,-1,-4,-4,-7,-4
1.59101201047164e+15,-1,1,0,0,-2,-2,4,3
1.59101201047164e+15,0,-0,1,0,-1,-1,-2,-1
1.59101201047775e+15,-1,-1,-1,-2,0,0,0,-2
1.59101201047775e+15,0,-0,1,-1,1,1,-2,-7
1.59101201048583e+15,-3,-0,-1,0,-1,-1,2,2
1.59101201048583e+15,-2,1,-1,1,-1,-1,-1,1
1.59101201050078e+15,-3,-1,-3,-2,-3,-3,-1,-1
1.59101201050078e+15,-2,-0,0,-2,0,0,-2,-1
1.59101201054667e+15,-1,-0,-2,-2,1,1,0,4
1.59101201054667e+15,-2,-2,-2,-2,0,0,0,-5
1.59101201054798e+15,-1,-1,-2,-2,-2,-2,1,-2
1.59101201054798e+15,0,1,0,1,1,1,0,0
1.59101201054798e+15,-3,-1,-2,-3,-3,-3,-1,-3
1.59101201054798e+15,-1,-2,-2,-2,-2,-2,0,-1
1.59101201055396e+15,-1,-0,0,1,0,0,3,-1
1.59101201055396e+15,-1,-1,0,1,-2,-2,1,-3
1.59101201056892e+15,-1,-2,-1,-1,-3,-3,-4,0
1.59101201056892e+15,-3,-2,-1,-2,0,0,-4,-4
1.59101201057092e+15,0,-0,0,0,-2,-2,-1,2
1.59101201057092e+15,-2,-0,-1,0,-1,-1,-1,2
1.59101201057194e+15,-4,-2,-1,-1,0,0,-4,-6
1.59101201057194e+15,1,-0,-2,-1,-2,-2,3,0
1.59101201058289e+15,2,1,-1,-2,0,0,2,2
1.59101201058289e+15,0,-0,0,-2,-1,-1,0,2
1.59101201059694e+15,0,-1,-2,-2,-2,-2,-1,-1
1.59101201059694e+15,-1,-0,0,-1,-1,-1,-1,-5
1.59101201060392e+15,0,-1,-2,-1,-1,-1,-5,-2
1.59101201060392e+15,0,-0,-2,0,1,1,0,-1
1.59101201061184e+15,-1,-1,-3,1,-1,-1,0,-1
1.59101201061184e+15,-3,-1,-1,-2,-2,-2,0,1
1.5910120106279e+15,4,-0,-1,0,-3,-3,-4,-3
1.5910120106279e+15,-2,-0,1,-2,0,0,1,2
1.59101201062889e+15,-1,-1,0,-2,-1,-1,-6,-3
1.59101201062889e+15,-2,-1,-3,0,-1,-1,-2,-1
1.59101201064984e+15,-1,-0,-1,-1,-1,-1,-1,-4
1.59101201064984e+15,2,-1,-2,-2,-2,-2,-1,0
1.59101201065083e+15,-2,-1,-1,-4,0,0,1,-1
1.59101201065083e+15,0,-1,1,-2,-2,-2,-2,0
1.5910120106658e+15,-5,-2,-3,-2,-2,-2,-4,-3
1.5910120106658e+15,2,1,-1,0,-1,-1,-1,3
1.59101201067186e+15,-1,-0,0,-2,-1,-1,2,3
1.59101201067186e+15,-1,-1,-1,0,-4,-4,-3,-1
1.59101201068684e+15,-2,-1,-1,-2,-2,-2,1,-2
1.59101201068684e+15,-2,-1,0,0,-2,-2,-3,-2
1.59101201068774e+15,-2,-2,-2,-3,-1,-1,-4,-5
1.59101201068774e+15,-1,1,-1,-2,0,0,3,4
1.59101201070974e+15,-2,-0,-1,0,0,0,-3,-2
1.59101201070974e+15,-1,-1,-2,-2,-2,-2,-3,-2
1.59101201071068e+15,1,-0,0,-2,0,0,1,2
1.59101201071068e+15,-2,-0,-1,-2,-2,-2,1,-1
1.59101201072364e+15,-1,-0,0,0,0,0,-2,1
1.59101201072364e+15,-1,-1,-2,0,-2,-2,-1,-2
1.5910120107396e+15,-1,-3,0,0,-3,-3,-12,-11
1.5910120107396e+15,-3,-0,-2,-1,1,1,5,3
1.59101201075459e+15,0,1,-2,0,1,1,1,1
1.59101201075459e+15,-2,-3,-3,-3,-1,-1,-4,-4
1.59101201075556e+15,-1,-0,-1,0,0,0,1,-2
1.59101201075556e+15,-1,-3,-1,-2,-2,-2,-5,-4
1.59101201076955e+15,-1,-0,-1,-3,-1,-1,0,-4
1.59101201076955e+15,-1,-2,-2,-1,-1,-1,-1,-3
1.59101201077051e+15,-1,1,-2,0,0,0,3,5
1.59101201077051e+15,1,-0,0,1,-2,-2,-1,-1
1.59101201078452e+15,-2,-0,-2,0,-2,-2,-2,1
1.59101201078452e+15,-2,-0,-1,-2,-1,-1,-2,2
1.5910120107915e+15,0,-0,-1,-1,0,0,-1,2
1.5910120107915e+15,0,-1,-1,-2,1,1,-5,-2
1.59101201080746e+15,-2,1,0,-1,0,0,1,3
1.59101201080746e+15,-1,-1,-1,-3,-2,-2,-3,-4
1.59101201080841e+15,-1,-1,-1,-2,-3,-3,1,0
1.59101201080841e+15,1,-3,-1,-1,-1,-1,-13,-14
1.59101201082946e+15,1,3,-2,1,0,0,9,11
1.59101201082946e+15,-3,-2,0,-3,-2,-2,-5,-5
1.59101201083046e+15,-1,-0,-3,-1,0,0,4,2
1.59101201083046e+15,-1,-2,-1,-3,-2,-2,-2,-5
1.59101201084641e+15,-2,-3,-1,-1,-3,-3,-3,-6
1.59101201084641e+15,0,-0,-1,0,0,0,0,-1
1.59101201085142e+15,-1,-1,-2,0,-1,-1,-2,-3
1.59101201085142e+15,-1,-1,-3,1,-2,-2,0,2
1.59101201086735e+15,0,-0,-2,-2,-1,-1,0,-2
1.59101201086735e+15,-2,-0,-2,-2,0,0,1,0
1.59101201086847e+15,-2,-2,-2,1,-2,-2,-4,-4
1.59101201086847e+15,-1,1,0,0,-1,-1,0,4
1.59101201088941e+15,-2,-2,-1,-1,-2,-2,-3,-2
1.59101201088941e+15,-2,-1,-2,-2,0,0,-2,-1
1.59101201089029e+15,-1,-0,0,-1,-1,-1,0,2
1.59101201089029e+15,-3,-0,-1,0,-1,-1,0,0
1.59101201090525e+15,-2,-0,-1,-2,-2,-2,0,0
1.59101201090525e+15,-1,-0,-1,-1,0,0,2,-3
1.59101201091127e+15,-2,-2,-1,-2,-3,-3,-3,-2
1.59101201091127e+15,0,-0,-1,-1,-3,-3,1,2
1.59101201092725e+15,0,-0,0,-2,-2,-2,-3,-1
1.59101201092725e+15,0,-0,-2,-1,-1,-1,-2,0
1.59101201092819e+15,-2,-2,-2,-2,-2,-2,-2,-2
1.59101201092819e+15,-1,-1,0,-1,-3,-3,-1,-1
1.59101201095014e+15,-2,-0,-1,-2,1,1,2,-2
1.59101201095014e+15,0,-2,-1,0,-4,-4,-9,-2
1.59101201095014e+15,1,-0,0,-2,-1,-1,-2,-3
1.59101201095014e+15,0,-0,0,-1,-1,-1,-1,-1
1.59101201097209e+15,-2,-1,-1,-2,0,0,-2,0
1.59101201097209e+15,-1,-1,-3,-1,0,0,0,2
1.59101201097298e+15,-2,1,2,-1,1,1,0,0
1.59101201097298e+15,0,-0,1,-2,1,1,0,0
1.59101201098794e+15,-2,-3,-2,-2,-4,-4,-6,-6
1.59101201098794e+15,-2,-0,-1,0,0,0,-2,-1
1.59101201098894e+15,1,-0,-2,-2,-1,-1,1,2
1.59101201098894e+15,-1,-1,-1,-2,-2,-2,-4,-1
1.5910120110099e+15,0,-1,-3,-1,0,0,-4,-4
1.5910120110099e+15,-3,-2,-3,-3,-2,-2,-2,-2
1.59101201101088e+15,-1,1,0,2,1,1,1,3
1.59101201101088e+15,-2,-2,-1,-3,-1,-1,-3,1
1.59101201102386e+15,-2,-1,-3,-2,-2,-2,-1,-2
1.59101201102386e+15,0,-1,0,-1,-2,-2,-5,-4
1.5910120110398e+15,-1,-0,0,-2,-3,-3,3,4
1.5910120110398e+15,-1,-0,-2,-1,-1,-1,-1,-1
1.59101201104878e+15,0,-0,0,0,0,0,-3,-2
1.59101201104878e+15,-3,-1,-1,-2,-1,-1,0,0
1.59101201104977e+15,0,-1,-3,-1,-2,-2,-1,-5
1.59101201104977e+15,0,-0,-3,1,-1,-1,2,-3
1.59101201106972e+15,-1,1,0,-1,1,1,3,1
1.59101201106972e+15,-1,-1,0,0,-2,-2,-3,-2
1.59101201107673e+15,0,-0,1,-1,0,0,-1,-2
1.59101201107673e+15,0,-0,0,0,-1,-1,-2,0
1.59101201108369e+15,-2,-0,-2,0,-1,-1,1,1
1.59101201108369e+15,-1,-0,-1,-2,-2,-2,3,0
1.59101201109975e+15,-2,-1,-1,-2,1,1,-3,-4
1.59101201109975e+15,0,1,-2,-1,1,1,2,2
1.59101201111471e+15,-1,-1,1,-1,-2,-2,-4,-3
1.59101201111471e+15,-1,-0,-3,0,1,1,-1,-2
1.59101201113066e+15,0,-0,-1,-1,-2,-2,0,1
1.59101201113066e+15,0,-0,-1,-1,0,0,1,-1
1.59101201113761e+15,2,-0,0,-3,-3,-3,0,0
1.59101201113761e+15,-1,-0,-1,-2,-3,-3,3,0
1.59101201113854e+15,-2,-1,-2,-2,-2,-2,1,0
1.59101201113854e+15,-1,-1,-1,-1,-1,-1,-3,-4
1.59101201114431e+15,-3,-0,-2,-1,-1,-1,-1,1
1.59101201114431e+15,-1,-1,-1,-1,-3,-3,-4,-4
1.59101201115928e+15,-1,-1,-3,-3,-2,-2,-1,-3
1.59101201115928e+15,-1,2,-2,0,0,0,5,3
1.59101201116826e+15,-2,-1,1,-1,0,0,-3,-6
1.59101201116826e+15,-1,-0,0,-1,-2,-2,-2,1
1.59101201116922e+15,-1,-1,-2,-1,-1,-1,-2,-3
1.59101201116922e+15,-2,-1,-1,-2,0,0,0,-1
1.59101201119116e+15,0,-0,-2,-2,-1,-1,0,2
1.59101201119116e+15,-2,-2,-2,-4,1,1,-2,-4
1.59101201119216e+15,1,-0,0,1,1,1,-1,0
1.59101201119216e+15,-2,-2,0,-2,-2,-2,-2,-8
1.59101201121214e+15,-1,-0,-1,-1,-1,-1,0,-2
1.59101201121214e+15,-3,-0,-1,0,1,1,-1,1
1.59101201122012e+15,-3,-3,-1,-2,-2,-2,-3,-9
1.59101201122012e+15,1,1,2,1,1,1,-1,4
1.5910120112271e+15,-1,-1,-2,-2,-2,-2,-2,0
1.5910120112271e+15,0,-1,-1,-1,-3,-3,-2,-2
1.59101201122806e+15,-1,-0,0,0,-1,-1,1,1
1.59101201122806e+15,-3,-2,-3,-1,-2,-2,-6,-4
1.59101201125047e+15,-2,-2,-3,-2,-2,-2,-3,-3
1.59101201125047e+15,-1,2,-1,1,0,0,5,4
1.59101201125744e+15,-1,-2,-1,-3,-1,-1,-5,-2
1.59101201125744e+15,-1,-1,1,-2,-2,-2,-3,-1
1.5910120112724e+15,-1,1,-1,1,1,1,-1,1
1.5910120112724e+15,-1,-1,-2,-3,-2,-2,-2,-1
1.59101201127336e+15,-2,-0,0,1,-1,-1,-1,-2
1.59101201127336e+15,-3,-1,-2,-2,-1,-1,-2,0
1.59101201128736e+15,-1,-0,0,-1,0,0,-1,-3
1.59101201128736e+15,-2,1,1,-2,0,0,2,2
1.59101201128832e+15,-1,-2,0,0,-2,-2,-4,-7
1.59101201128832e+15,-1,-0,-2,-1,0,0,-2,3
1.5910120113103e+15,1,2,-2,1,0,0,6,7
1.5910120113103e+15,0,-2,-1,-1,-1,-1,-6,-5
1.59101201131126e+15,0,-0,-1,-1,-1,-1,0,0
1.59101201131126e+15,-1,-0,0,1,0,0,0,0
1.5910120113332e+15,-3,-3,-3,-1,-3,-3,-5,-3
1.5910120113332e+15,0,1,-1,-2,-2,-2,1,2
1.59101201133421e+15,-2,-1,-2,-2,-4,-4,1,0
1.59101201133421e+15,-1,-1,0,-1,-2,-2,-4,-3
1.59101201134617e+15,-2,-2,-1,-2,-1,-1,-3,-4
1.59101201134617e+15,-2,-1,-3,-3,1,1,-4,-2
1.59101201136215e+15,-2,-0,-1,-3,-2,-2,2,3
1.59101201136215e+15,1,1,0,0,-1,-1,2,0
1.59101201137013e+15,0,-0,0,0,-1,-1,-2,-4
1.59101201137013e+15,1,-1,1,-1,-3,-3,0,-4
1.59101201137013e+15,-2,1,1,-1,0,0,0,0
1.59101201137013e+15,-1,-0,-1,-1,-2,-2,-1,-2
1.59101201139209e+15,-2,-1,-2,-2,-3,-3,-2,1
1.59101201139209e+15,0,2,-1,-2,1,1,5,5
1.59101201139305e+15,2,-0,-1,-1,0,0,-3,2
1.59101201139305e+15,-2,-2,-2,0,-2,-2,-3,-2
1.59101201140605e+15,-1,-0,0,0,0,0,-2,-4
1.59101201140605e+15,-4,-1,-2,0,-1,-1,2,-1
1.59101201141403e+15,-2,-0,-1,-1,1,1,0,0
1.59101201141403e+15,-1,-2,-2,-2,-2,-2,-4,-2
1.59101201142995e+15,0,-1,0,-1,-2,-2,-1,-2
1.59101201142995e+15,-1,-1,-3,-2,0,0,-2,-1
1.59101201143094e+15,-2,-1,-2,-2,-1,-1,0,-2
1.59101201143094e+15,-1,-1,-1,-2,-2,-2,0,-1
1.59101201145252e+15,-1,-0,0,-1,-2,-2,-1,0
1.59101201145252e+15,-1,-0,-2,1,-1,-1,1,-2
1.59101201145951e+15,-3,-3,-1,-1,-1,-1,-7,-12
1.59101201145951e+15,-2,-2,-2,-3,0,0,0,-5
1.59101201146649e+15,2,3,0,-1,0,0,3,12
1.59101201146649e+15,-2,-2,-2,-1,-2,-2,-2,-4
1.59101201147446e+15,-1,-0,-3,-2,-2,-2,1,2
1.59101201147446e+15,0,-0,-1,0,-1,-1,-2,-2
1.59101201148942e+15,-2,-2,-2,-2,-1,-1,-1,-5
1.59101201148942e+15,-4,-1,-1,-1,-1,-1,-3,-3
1.59101201149038e+15,2,2,-1,1,1,1,3,5
1.59101201149038e+15,0,-0,0,-2,0,0,0,-2
1.59101201152132e+15,-2,-2,-1,-3,-1,-1,-3,-3
1.59101201152132e+15,-1,-0,1,-1,-1,-1,0,-2
1.5910120115223e+15,-3,-1,-2,0,-1,-1,-2,-4
1.5910120115223e+15,-1,-1,-1,-1,0,0,-6,0
1.5910120115343e+15,-1,-1,-2,1,1,1,-2,-3
1.5910120115343e+15,-2,-1,0,-2,-1,-1,-3,-5
1.59101201153526e+15,-1,-1,-2,-1,-1,-1,-1,0
1.59101201153526e+15,-1,-1,-4,-1,-4,-4,2,1
1.59101201154882e+15,-2,-1,-2,-1,-2,-2,-2,-2
1.59101201154882e+15,0,-1,-2,0,-2,-2,-1,-2
1.59101201155779e+15,-2,-2,-1,-2,0,0,-2,-7
1.59101201155779e+15,-1,1,-2,0,0,0,4,5
1.59101201157275e+15,-1,-0,0,1,-1,-1,-3,-2
1.59101201157275e+15,1,1,0,-1,-2,-2,0,3
1.59101201157976e+15,-3,-1,0,-1,-1,-1,-2,-1
1.59101201157976e+15,-4,-1,0,-2,-1,-1,0,-4
1.59101201159469e+15,1,-1,-1,-2,-1,-1,-5,-5
1.59101201159469e+15,0,-0,-2,0,-2,-2,-1,0
1.59101201159568e+15,-1,-0,-2,-3,-1,-1,4,3
1.59101201159568e+15,0,-1,0,-2,-1,-1,-2,-4
1.59101201160888e+15,-1,1,0,-3,1,1,2,3
1.59101201160888e+15,-3,-2,-1,-3,-2,-2,-6,-5
1.59101201161779e+15,-2,-0,-2,-1,-1,-1,-2,1
1.59101201161779e+15,-1,1,-1,0,-1,-1,2,4
1.59101201163274e+15,0,-1,-2,-1,0,0,1,-2
1.59101201163274e+15,-1,-2,-1,-1,0,0,-4,-6
1.59101201163371e+15,0,-0,-1,1,-1,-1,0,-2
1.59101201163371e+15,0,-0,-1,-3,-2,-2,2,5
1.5910120116549e+15,-1,-0,-1,0,-2,-2,-2,0
1.5910120116549e+15,-5,-1,-1,0,0,0,-2,-1
1.59101201165597e+15,-2,-0,-3,-4,-2,-2,0,3
1.59101201165597e+15,-1,-1,0,-1,-1,-1,-3,0
1.591012011678e+15,0,-1,-2,-3,-3,-3,-2,0
1.591012011678e+15,-1,-1,0,-3,-2,-2,-3,0
1.591012011679e+15,0,-0,0,-1,0,0,0,-1
1.591012011679e+15,-3,-1,0,-1,0,0,-3,-3
1.5910120116921e+15,-2,-1,-1,0,-3,-3,-1,2
1.5910120116921e+15,-2,-1,-4,1,-1,-1,-3,-1
1.59101201169296e+15,0,-0,-1,0,-1,-1,-1,0
1.59101201169296e+15,-2,-2,-2,-1,-3,-3,-2,-4
1.5910120117149e+15,-2,-1,-2,0,-2,-2,1,-2
1.5910120117149e+15,0,-0,-1,0,1,1,-1,-4
1.5910120117159e+15,0,-0,-3,-1,-1,-1,0,1
1.5910120117159e+15,-1,-0,-1,-1,-2,-2,-1,7
1.59101201173912e+15,-2,-0,-1,-1,1,1,-1,-3
1.59101201173912e+15,0,-0,-1,-1,-1,-1,1,-1
1.59101201173912e+15,0,-0,-1,1,1,1,-1,-3
1.59101201173912e+15,-1,-1,-1,-1,0,0,-3,-6
1.59101201175212e+15,-1,-2,0,-3,-1,-1,-4,-7
1.59101201175212e+15,0,-0,-1,0,1,1,0,1
1.59101201175301e+15,-1,-0,-1,-1,-3,-3,-1,1
1.59101201175301e+15,0,-0,-2,0,0,0,0,-2
1.59101201177504e+15,-3,-1,-2,-3,-1,-1,-1,-1
1.59101201177504e+15,1,-0,0,-2,-2,-2,0,0
1.59101201177596e+15,0,-1,0,-1,-1,-1,-3,-7
1.59101201177596e+15,1,1,-2,-1,-1,-1,4,3
1.59101201179892e+15,-1,1,-2,2,0,0,1,3
1.59101201179892e+15,-1,-0,-3,-1,-1,-1,1,1
1.59101201179892e+15,0,1,0,0,0,0,-1,-2
1.59101201179892e+15,-2,-1,0,-2,-2,-2,-1,0
1.59101201181189e+15,-1,-0,0,-2,0,0,-3,-1
1.59101201181189e+15,-1,-1,0,0,-2,-2,1,2
1.59101201181288e+15,-1,-1,-2,-1,-1,-1,-4,-3
1.59101201181288e+15,-1,-2,-1,-1,-1,-1,-4,-7
1.59101201183483e+15,-1,-1,-2,-2,-2,-2,1,-1
1.59101201183483e+15,-1,-0,1,-2,-3,-3,-2,2
1.59101201183582e+15,-4,-1,-1,-2,-1,-1,-3,-1
1.59101201183582e+15,-1,-2,-3,-1,-2,-2,-1,-4
1.59101201185776e+15,0,-1,-2,-3,-1,-1,1,-1
1.59101201185776e+15,1,-0,-2,-1,-3,-3,-1,0
1.59101201185876e+15,-1,-0,-1,1,-1,-1,0,0
1.59101201185876e+15,1,-0,1,-1,-1,-1,-1,2
1.59101201187173e+15,-3,-2,-3,-3,-1,-1,-4,-2
1.59101201187173e+15,-5,-2,-1,-3,-1,-1,1,-1
1.59101201187272e+15,1,-0,-1,0,-1,-1,-1,-1
1.59101201187272e+15,-3,-1,-1,-1,-1,-1,-2,-2
1.59101201189471e+15,-1,-1,0,0,0,0,-2,-3
1.59101201189471e+15,1,-0,2,1,0,0,-4,-4
1.59101201189567e+15,-2,-1,0,-1,-3,-3,0,-5
1.59101201189567e+15,0,-0,0,-1,0,0,1,2
1.59101201191767e+15,0,-0,-2,0,-3,-3,-1,2
1.59101201191767e+15,0,-0,-3,0,0,0,-1,-1
1.59101201191767e+15,-2,-0,1,-1,-2,-2,0,0
1.59101201191767e+15,-3,-1,0,1,-1,-1,-3,-4
1.59101201194171e+15,-1,-1,-2,-2,-2,-2,0,-2
1.59101201194171e+15,-1,-0,-3,0,0,0,3,-2
1.59101201194171e+15,0,-0,-1,0,0,0,2,-4
1.59101201194171e+15,2,1,0,-3,-1,-1,4,3
1.59101201195461e+15,-1,-2,-2,-2,-1,-1,-2,-5
1.59101201195461e+15,0,-0,-2,-1,-1,-1,3,-3
1.5910120119555e+15,0,-1,-1,0,1,1,-3,-2
1.5910120119555e+15,-3,-2,-3,-2,-3,-3,-1,-1
1.59101201197744e+15,1,-0,-1,-1,-2,-2,0,0
1.59101201197744e+15,2,1,-1,-1,1,1,3,3
1.59101201197844e+15,-2,-1,-2,-2,0,0,-2,2
1.59101201197844e+15,-2,-1,0,-3,-1,-1,-4,-2
1.5910120119925e+15,-3,-1,0,-1,-2,-2,-2,-3
1.5910120119925e+15,-1,-1,-1,-2,-3,-3,-2,-1
1.5910120119934e+15,-3,-0,-2,-2,-1,-1,0,1
1.5910120119934e+15,-4,-2,-3,0,1,1,-4,-4
1.59101201201434e+15,-1,-2,-3,-2,-2,-2,-4,-1
1.59101201201434e+15,-1,-1,0,0,0,0,-3,-2
1.59101201202232e+15,4,2,-1,0,-2,-2,3,4
1.59101201202232e+15,2,-0,0,-1,0,0,0,-1
1.5910120120374e+15,0,-0,-1,-2,2,2,-1,0
1.5910120120374e+15,-3,-1,0,-1,0,0,-3,-3
1.59101201204526e+15,-2,-1,-1,-2,-2,-2,0,1
1.59101201204526e+15,-1,-2,-1,-2,-2,-2,-4,-3
1.59101201205235e+15,-1,1,-2,1,0,0,-1,1
1.59101201205235e+15,0,-0,-1,-1,-2,-2,0,2
1.59101201205324e+15,-1,-1,-1,0,0,0,-3,1
1.59101201205324e+15,1,-1,-1,-1,-1,-1,-4,-4
1.59101201207518e+15,-2,-0,-1,-1,-1,-1,3,2
1.59101201207518e+15,-1,-2,-2,-2,-1,-1,-3,-3
1.59101201207518e+15,0,-0,-1,-1,-3,-3,-2,-3
1.59101201207518e+15,2,-1,-1,0,-1,-1,-3,-2
1.59101201209819e+15,0,1,-1,-1,-2,-2,3,7
1.59101201209819e+15,-4,-2,0,-1,-3,-3,-3,-2
1.59101201209819e+15,2,-0,-1,-2,-1,-1,-2,-1
1.59101201209819e+15,-4,-1,0,0,1,1,-2,-1
1.59101201211211e+15,-2,-3,1,-2,-3,-3,-6,-8
1.59101201211211e+15,0,1,-2,-1,-1,-1,4,1
1.59101201211308e+15,2,2,0,0,0,0,2,6
1.59101201211308e+15,-1,-1,-2,0,-4,-4,-3,-2
1.59101201213506e+15,-2,-0,-2,-1,0,0,-1,0
1.59101201213506e+15,-3,-1,-1,0,-2,-2,-2,-2
1.59101201213506e+15,-1,-1,-1,0,-3,-3,-1,-3
1.59101201213506e+15,1,1,0,-1,-1,-1,3,0
1.59101201215721e+15,-1,-3,-1,-2,-1,-1,-5,-7
1.59101201215721e+15,0,-0,-1,-3,-1,-1,1,1
1.59101201215796e+15,-3,-1,-1,1,-2,-2,-2,-3
1.59101201215796e+15,0,-0,0,-1,-2,-2,0,3
1.59101201217271e+15,-2,-1,0,-2,-1,-1,1,-1
1.59101201217271e+15,0,-0,0,-1,-1,-1,-1,0
1.59101201217271e+15,0,-1,-1,-2,0,0,-1,-1
1.59101201217271e+15,0,-0,-2,-1,0,0,0,-2
1.59101201219465e+15,-1,-1,-2,0,-2,-2,-1,-4
1.59101201219465e+15,-1,-0,0,0,-2,-2,1,4
1.59101201219565e+15,-2,-1,-1,-1,1,1,-3,-6
1.59101201219565e+15,1,2,-2,-1,0,0,5,5
1.59101201222564e+15,-3,-2,-2,-1,-2,-2,-5,-1
1.59101201222564e+15,2,-3,-2,-5,-3,-3,-5,-7
1.59101201222657e+15,-1,1,1,0,0,0,4,1
1.59101201222657e+15,-3,-3,-3,-2,-2,-2,-7,-7
1.59101201223262e+15,-1,-0,-1,0,-1,-1,-2,2
1.59101201223262e+15,-1,-0,-1,0,-1,-1,1,0
1.59101201223262e+15,-1,-0,0,-1,-2,-2,-3,0
1.59101201223262e+15,-2,-1,-2,0,-1,-1,-1,-3
1.59101201225455e+15,0,-0,-2,-2,0,0,2,-3
1.59101201225455e+15,-2,-0,-1,-1,0,0,0,-3
1.59101201225549e+15,-1,-0,1,0,-1,-1,-1,-4
1.59101201225549e+15,0,1,-2,0,-3,-3,3,7
1.59101201227746e+15,-2,-0,-1,-2,-1,-1,-1,1
1.59101201227746e+15,-2,-0,-2,0,1,1,0,-1
1.59101201227843e+15,-1,-0,-1,0,-1,-1,1,1
1.59101201227843e+15,-2,1,0,-1,1,1,-1,2
1.59101201229144e+15,-2,-1,-1,0,-2,-2,-1,-4
1.59101201229144e+15,1,-0,0,-2,-3,-3,-1,1
1.59101201229942e+15,-2,-0,-1,-1,-1,-1,0,-1
1.59101201229942e+15,0,-0,1,-1,0,0,-2,-4
1.59101201231437e+15,1,-0,-3,-2,-1,-1,0,0
1.59101201231437e+15,-2,-1,-2,-1,1,1,-2,-1
1.59101201231533e+15,0,-2,-2,-3,-1,-1,-3,-6
1.59101201231533e+15,-3,-1,-2,-2,-3,-3,1,-1
1.59101201233727e+15,-1,-0,-2,-1,0,0,0,1
1.59101201233727e+15,-3,-2,-1,1,1,1,-3,-6
1.59101201233827e+15,-1,1,-2,-1,0,0,3,4
1.59101201233827e+15,0,-1,-1,-3,-2,-2,-6,-1
1.59101201235128e+15,-2,-1,-2,-1,-2,-2,-3,-4
1.59101201235128e+15,-1,-1,-2,-1,-3,-3,-2,-3
1.59101201236048e+15,0,-0,-1,-1,0,0,2,1
1.59101201236048e+15,-3,-1,-1,-2,0,0,-2,-4
1.59101201237517e+15,-1,-1,-1,-2,-2,-2,-1,1
1.59101201237517e+15,0,-0,-1,-2,-1,-1,1,0
1.59101201237517e+15,1,-1,-1,0,-2,-2,-2,-4
1.59101201237517e+15,-1,-0,-2,1,0,0,-1,-3
1.59101201239731e+15,0,-0,-1,-1,-1,-1,0,-1
1.59101201239731e+15,-1,1,1,1,-1,-1,0,-3
1.59101201239811e+15,0,-0,-1,-2,-1,-1,-1,0
1.59101201239811e+15,-2,-2,-2,-1,-2,-2,-2,-4
1.59101201241111e+15,0,-0,0,0,-2,-2,2,2
1.59101201241111e+15,-3,-1,-1,0,-1,-1,-2,-2
1.59101201242009e+15,-1,1,-2,-2,0,0,3,6
1.59101201242009e+15,1,2,0,0,2,2,3,2
1.59101201243507e+15,-3,-1,0,0,-2,-2,-4,-1
1.59101201243507e+15,-2,-2,-2,-2,-3,-3,-3,-1
1.59101201243507e+15,1,1,-1,0,0,0,1,1
1.59101201243507e+15,-1,-0,1,-1,-2,-2,-3,1
1.59101201245702e+15,1,-0,-3,-1,0,0,1,0
1.59101201245702e+15,0,-0,1,-1,-1,-1,-1,1
1.59101201245795e+15,-2,-2,-1,-1,0,0,-4,-3
1.59101201245795e+15,-2,-1,-1,-3,-3,-3,0,2
1.59101201247197e+15,-1,-0,-1,0,0,0,0,-2
1.59101201247197e+15,0,-0,-1,-2,0,0,0,-1
1.59101201247997e+15,-2,-1,-1,0,-2,-2,-4,-1
1.59101201247997e+15,-1,-1,-1,-1,-2,-2,-2,-2
1.59101201249485e+15,-1,-1,0,-1,-4,-4,-3,-1
1.59101201249485e+15,0,-0,-1,-2,-1,-1,1,2
1.59101201249584e+15,-2,-2,-3,-3,0,0,-6,-5
1.59101201249584e+15,2,1,0,1,1,1,2,-2
1.591012012526e+15,-1,-2,-2,-2,0,0,-4,-7
1.591012012526e+15,-2,-0,0,0,0,0,0,-1
1.591012012526e+15,-2,-1,-1,-3,1,1,0,-6
1.591012012526e+15,-2,-1,-2,0,-3,-3,-4,1
1.59101201253203e+15,-2,-1,0,-3,0,0,-3,-2
1.59101201253203e+15,-1,-0,-2,-1,-2,-2,1,4
1.59101201253981e+15,2,-0,-1,0,-2,-2,0,1
1.59101201253981e+15,-1,-1,-1,-1,0,0,0,-5
1.59101201255469e+15,-1,-1,-2,-2,-1,-1,1,2
1.59101201255469e+15,-2,-0,0,0,-1,-1,-2,0
1.59101201255569e+15,-2,-2,0,0,-2,-2,-5,-5
1.59101201255569e+15,-1,-0,-2,-2,-1,-1,1,0
1.59101201257764e+15,-2,-0,-2,0,-1,-1,0,3
1.59101201257764e+15,0,-1,-1,-1,-2,-2,-4,-3
1.59101201257764e+15,-3,-1,-2,-1,1,1,-3,1
1.59101201257764e+15,0,-0,-2,-1,-1,-1,1,0
1.59101201260071e+15,-2,-0,-1,-1,1,1,-1,-3
1.59101201260071e+15,0,-1,-3,-2,-1,-1,-1,1
1.59101201260156e+15,-2,-1,0,-1,-1,-1,-3,-3
1.59101201260156e+15,0,1,1,-1,-2,-2,1,2
1.59101201261476e+15,-2,-2,-1,-3,-3,-3,-2,-4
1.59101201261476e+15,0,2,0,1,0,0,5,3
1.59101201261552e+15,-2,-0,-1,-2,-3,-3,0,-2
1.59101201261552e+15,-3,-2,-2,-2,0,0,-4,-5
1.59101201263749e+15,1,-0,0,0,0,0,-2,-2
1.59101201263749e+15,-2,1,-1,3,0,0,0,-2
1.59101201263749e+15,-1,-0,-1,2,1,1,-2,-1
1.59101201263749e+15,-2,-1,-2,-2,-3,-3,-1,0
1.59101201266073e+15,-2,-1,-1,0,-2,-2,0,-1
1.59101201266073e+15,-1,-1,-2,-3,-3,-3,-2,-3
1.5910120126614e+15,-1,1,-1,-2,0,0,4,3
1.5910120126614e+15,1,-1,0,-2,0,0,-6,-3
1.59101201267565e+15,-2,-1,-1,-2,0,0,-2,-2
1.59101201267565e+15,-1,-1,-2,-1,1,1,-2,-3
1.59101201269036e+15,0,-0,-1,-1,0,0,2,0
1.59101201269036e+15,-1,-0,-1,-2,2,2,-3,-4
1.59101201269735e+15,-1,-1,0,-2,-1,-1,1,-2
1.59101201269735e+15,0,-0,-1,0,-1,-1,0,2
1.5910120126983e+15,-2,-1,-1,0,-2,-2,0,-1
1.5910120126983e+15,-1,-0,-1,-2,-1,-1,0,1
1.59101201272024e+15,-1,-1,-2,-2,-1,-1,-1,-3
1.59101201272024e+15,-1,-1,-2,-1,-2,-2,0,0
1.59101201272124e+15,1,1,-1,0,1,1,0,2
1.59101201272124e+15,-2,-0,-3,-2,-3,-3,0,2
1.59101201273453e+15,0,-0,-1,0,-2,-2,0,2
1.59101201273453e+15,-1,-1,-1,-2,0,0,-1,-6
1.59101201273531e+15,0,-1,-1,-1,-2,-2,-2,-2
1.59101201273531e+15,-1,-0,-1,-1,-2,-2,0,0
1.5910120127583e+15,1,-1,-2,-1,-3,-3,-2,-3
1.5910120127583e+15,-1,-2,-1,-1,0,0,-2,-5
1.59101201276429e+15,-2,-1,-1,0,-2,-2,-2,-4
1.59101201276429e+15,1,-0,0,0,0,0,-2,-3
1.59101201278047e+15,-1,-0,-1,-1,1,1,3,0
1.59101201278047e+15,0,1,0,-2,0,0,0,4
1.59101201278119e+15,-3,-1,-1,-1,-2,-2,-2,-4
1.59101201278119e+15,-2,-1,-1,-2,-2,-2,1,2
1.59101201280313e+15,0,-1,1,-2,-1,-1,-2,0
1.59101201280313e+15,-2,-1,-2,-2,-2,-2,-2,-1
1.59101201280413e+15,0,-0,-2,-1,-1,-1,2,4
1.59101201280413e+15,0,1,-3,1,0,0,3,1
1.59101201281731e+15,-1,-0,-1,-1,-1,-1,-4,-1
1.59101201281731e+15,-1,-1,-2,0,-2,-2,-2,-2
1.59101201281809e+15,-1,-0,1,-2,0,0,-3,0
1.59101201281809e+15,-2,-1,-3,0,-2,-2,0,-1
1.59101201284003e+15,-3,-0,-2,-1,-1,-1,-1,1
1.59101201284003e+15,-4,-2,0,-2,-1,-1,-1,-2
1.59101201284104e+15,-1,-1,-2,0,-3,-3,0,-1
1.59101201284104e+15,2,1,0,-1,0,0,0,1
1.59101201285499e+15,3,-0,0,-3,0,0,-2,-2
1.59101201285499e+15,-3,-2,-1,-2,-1,-1,-4,-7
1.59101201285599e+15,1,-1,-1,-3,-1,-1,-2,-3
1.59101201285599e+15,-1,-0,-2,-1,-1,-1,-2,-2
1.59101201288594e+15,0,1,-2,-1,1,1,2,2
1.59101201288594e+15,0,-0,-1,-2,-2,-2,-2,0
1.59101201288594e+15,-2,1,-1,-2,0,0,1,3
1.59101201288594e+15,-2,-1,-1,0,0,0,-4,-2
1.59101201289987e+15,-2,-0,-1,-3,-1,-1,1,-2
1.59101201289987e+15,0,-1,0,-1,-1,-1,-3,-2
1.59101201290087e+15,-1,-1,-1,-1,-1,-1,-3,-3
1.59101201290087e+15,-1,-1,-2,-4,-2,-2,-1,-3
1.59101201291583e+15,-2,-1,-3,0,-2,-2,-1,-2
1.59101201291583e+15,1,-0,-1,-1,0,0,1,4
1.59101201291682e+15,0,-0,-2,-1,-2,-2,-2,-1
1.59101201291682e+15,0,-0,-1,1,-1,-1,0,-1
1.59101201293789e+15,1,-1,0,-1,-2,-2,-2,-2
1.59101201293789e+15,-2,-1,-1,-1,-2,-2,-1,-2
1.59101201294475e+15,-1,-0,-1,-1,0,0,0,2
1.59101201294475e+15,-2,-1,0,-3,-1,-1,-1,0
1.59101201296774e+15,-3,-1,-2,0,-1,-1,0,0
1.59101201296774e+15,-2,-1,0,-1,-3,-3,-2,-3
1.59101201296869e+15,-1,-1,0,-2,-2,-2,0,-1
1.59101201296869e+15,-3,-2,-1,0,-2,-2,-6,-2
1.59101201297468e+15,-3,-2,-3,-2,0,0,-2,-2
1.59101201297468e+15,-1,-0,-1,-1,1,1,1,-4
1.59101201297567e+15,-1,-1,-1,-1,0,0,-2,-3
1.59101201297567e+15,-1,-1,-2,-2,-1,-1,0,-3
1.59101201299761e+15,-2,-2,-2,0,-2,-2,-4,-1
1.59101201299761e+15,-1,-0,-2,-1,-1,-1,0,2
1.59101201299761e+15,-3,-1,-1,-2,0,0,-1,0
1.59101201299761e+15,-1,-0,0,-2,0,0,0,2
1.59101201302055e+15,-1,-0,1,0,-1,-1,-1,-2
1.59101201302055e+15,-1,-2,-2,-1,-2,-2,-4,-5
1.59101201302055e+15,0,1,-1,-1,-1,-1,1,4
1.59101201302055e+15,-4,-3,-2,-2,-4,-4,-4,-5
1.59101201303515e+15,-1,1,2,0,-2,-2,2,2
1.59101201303515e+15,1,-1,0,-1,-2,-2,-1,-2
1.59101201303614e+15,-1,-1,-1,-1,-2,-2,-2,-5
1.59101201303614e+15,0,-1,-1,-1,-2,-2,-3,-2
1.59101201305709e+15,0,1,1,0,-2,-2,0,1
1.59101201305709e+15,-1,-0,-2,-2,0,0,-1,3
1.59101201305809e+15,-1,-0,-3,0,0,0,-1,1
1.59101201305809e+15,0,-0,-1,0,0,0,-1,-1
1.59101201308131e+15,-1,-2,-3,-4,-1,-1,0,0
1.59101201308131e+15,0,-0,-1,1,-2,-2,-2,-1
1.59101201308202e+15,-1,-2,0,-2,-2,-2,-4,-6
1.59101201308202e+15,-4,-2,1,0,1,1,-5,-10
1.59101201309498e+15,1,2,1,-2,0,0,5,8
1.59101201309498e+15,-1,-0,-2,-2,0,0,3,4
1.59101201309498e+15,-1,-0,-1,0,-1,-1,-2,-1
1.59101201309498e+15,0,-1,-2,-1,-2,-2,-1,-1
1.59101201311707e+15,-1,-2,0,-2,-2,-2,-4,-7
1.59101201311707e+15,-1,-0,0,-1,0,0,-1,-3
1.59101201311792e+15,-1,-0,-1,0,-4,-4,-1,4
1.59101201311792e+15,-1,-1,-3,-2,-1,-1,0,3
1.5910120131409e+15,-1,-1,-1,0,-3,-3,-2,-2
1.5910120131409e+15,1,-0,-3,-1,0,0,0,1
1.5910120131409e+15,-2,-1,-1,-1,1,1,-2,-1
1.5910120131409e+15,2,1,-1,-2,-1,-1,1,6
1.59101201315585e+15,0,-1,0,-1,-1,-1,-2,-3
1.59101201315585e+15,-1,-1,-1,-1,-1,-1,0,-4
1.59101201315585e+15,1,-1,-1,-2,0,0,0,-1
1.59101201315585e+15,-1,-1,0,-2,0,0,-3,-4
1.59101201317677e+15,-2,2,1,1,1,1,2,2
1.59101201317677e+15,-1,1,-1,-1,0,0,0,5
1.59101201317777e+15,-2,-0,-1,-1,-1,-1,-2,-1
1.59101201317777e+15,0,-0,0,-2,0,0,0,-2
1.59101201319977e+15,-4,-2,-3,-2,0,0,-2,-4
1.59101201319977e+15,-1,-0,-1,2,0,0,-3,-3
1.59101201320774e+15,2,-2,-3,-3,-2,-2,-3,-7
1.59101201320774e+15,-1,1,-1,-1,0,0,0,1
1.59101201321367e+15,0,-1,-1,-1,-3,-3,-3,-2
1.59101201321367e+15,0,-0,-1,0,-1,-1,-1,-1
1.59101201322265e+15,1,1,0,-1,1,1,-1,-1
1.59101201322265e+15,-3,-1,-3,-3,-1,-1,-2,-1
1.59101201323766e+15,-1,-1,-2,0,-1,-1,-3,0
1.59101201323766e+15,-1,-0,-2,1,-1,-1,3,-3
1.59101201323766e+15,-1,-1,-1,-1,-2,-2,-4,-1
1.59101201323766e+15,-5,-1,0,-2,-1,-1,-1,0
1.59101201326059e+15,-3,-2,-2,-1,-1,-1,-5,-2
1.59101201326059e+15,2,2,1,0,3,3,3,3
1.59101201326154e+15,-2,-0,-1,-2,0,0,-2,-4
1.59101201326154e+15,1,-0,0,0,-2,-2,0,-3
1.5910120132827e+15,0,-0,0,-2,-1,-1,1,-2
1.5910120132827e+15,-3,-1,-4,-2,-3,-3,0,-1
1.59101201328348e+15,1,1,-1,-1,1,1,1,1
1.59101201328348e+15,-1,-2,0,-2,-3,-3,-6,-4
1.59101201329744e+15,-1,-2,-1,-1,0,0,0,-4
1.59101201329744e+15,-1,-1,-1,-1,-1,-1,-4,0
1.59101201329848e+15,-1,-1,-1,-1,-3,-3,0,1
1.59101201329848e+15,-1,-1,-2,0,0,0,0,0
1.59101201331939e+15,-1,-1,-2,-1,-2,-2,-2,3
1.59101201331939e+15,0,-0,0,-1,-1,-1,-1,-1
1.59101201332737e+15,-2,-1,-3,0,-2,-2,-2,-2
1.59101201332737e+15,1,-1,-2,-2,-1,-1,0,-4
1.59101201333535e+15,0,1,-1,-1,-1,-1,1,0
1.59101201333535e+15,-3,-1,-1,-4,0,0,-2,2
1.59101201334235e+15,0,1,0,-1,0,0,0,3
1.59101201334235e+15,-1,-1,-1,-2,-2,-2,0,1
1.59101201335737e+15,-1,-0,-3,-1,1,1,1,-1
1.59101201335737e+15,-4,-1,2,-1,-2,-2,-2,-4
1.59101201335828e+15,-2,-1,-2,-1,-1,-1,-2,-5
1.59101201335828e+15,0,-1,-2,-2,0,0,0,2
1.5910120133803e+15,-2,-1,-1,0,0,0,-3,-6
1.5910120133803e+15,0,-1,-1,-1,0,0,-3,-3
1.59101201338122e+15,-1,-0,-1,-1,0,0,0,0
1.59101201338122e+15,0,-2,-3,-1,-2,-2,-3,-3
1.5910120134032e+15,0,-1,-2,-2,-4,-4,-2,-1
1.5910120134032e+15,0,-1,-1,-1,-2,-2,-4,-1
1.5910120134042e+15,0,1,1,1,0,0,1,3
1.5910120134042e+15,-1,-1,-3,-2,-1,-1,-3,-6
1.59101201341722e+15,1,1,0,-2,-1,-1,3,1
1.59101201341722e+15,-1,-2,-3,-2,-2,-2,1,-3
1.59101201341812e+15,2,1,-1,-2,0,0,2,5
1.59101201341812e+15,-4,-0,-1,0,-1,-1,-1,1
1.59101201344119e+15,0,1,1,0,0,0,-1,2
1.59101201344119e+15,0,-0,1,0,-1,-1,-1,-2
1.59101201344119e+15,-2,-2,0,-2,-2,-2,-5,-5
1.59101201344119e+15,-3,-1,-2,-3,-1,-1,-1,-2
1.59101201346312e+15,-1,-0,-2,-4,-1,-1,-1,7
1.59101201346312e+15,0,-0,-3,0,-1,-1,-1,-1
1.59101201346408e+15,-1,-1,-2,-1,-2,-2,-1,-2
1.59101201346408e+15,-3,-0,1,-1,-1,-1,2,1
1.59101201347722e+15,-1,-2,-2,-1,-3,-3,-3,-5
1.59101201347722e+15,0,1,1,-1,0,0,-1,2
1.59101201347804e+15,-4,-1,-1,0,1,1,-3,-6
1.59101201347804e+15,-2,-1,0,-3,-1,-1,-2,-2
1.59101201350103e+15,1,-0,-1,-1,0,0,3,4
1.59101201350103e+15,-1,-0,-1,0,0,0,0,1
1.59101201350103e+15,0,-1,-2,-1,-3,-3,-2,0
1.59101201350103e+15,0,-0,-1,-1,1,1,-2,-1
1.59101201352292e+15,-1,-1,2,-2,0,0,-2,-5
1.59101201352292e+15,0,-0,-3,-2,1,1,1,-4
1.59101201352391e+15,-3,-0,-1,-1,-1,-1,0,1
1.59101201352391e+15,0,-0,-1,-1,-3,-3,1,3
1.59101201353692e+15,-1,-2,-5,-2,-2,-2,-3,-3
1.59101201353692e+15,-1,-0,-1,-2,0,0,0,-1
1.59101201353788e+15,-2,-0,-1,0,0,0,0,-2
1.59101201353788e+15,0,-0,0,0,-1,-1,0,0
1.59101201356085e+15,-1,-1,-1,-2,-1,-1,-4,-3
1.59101201356085e+15,-2,-0,2,1,-1,-1,0,-3
1.59101201356085e+15,0,-2,-1,-1,-2,-2,-5,-8
1.59101201356085e+15,3,3,0,-2,0,0,6,10
1.59101201358281e+15,1,-1,0,-1,-1,-1,-5,-3
1.59101201358281e+15,-1,-0,-3,-1,0,0,0,6
1.59101201358375e+15,-1,-0,-1,-2,-1,-1,-2,3
1.59101201358375e+15,-1,-3,-3,0,-3,-3,-5,-8
1.59101201360584e+15,-2,-1,-2,0,-3,-3,0,-3
1.59101201360584e+15,0,-1,-2,0,-2,-2,-3,-2
1.59101201360672e+15,0,-0,-1,-1,-1,-1,-1,1
1.59101201360672e+15,-1,-1,-2,-1,-2,-2,-2,-2
1.59101201362066e+15,-1,1,0,1,1,1,2,0
1.59101201362066e+15,0,-0,-1,-1,-3,-3,0,-1
1.59101201362165e+15,-1,-1,0,1,-2,-2,-3,-1
1.59101201362165e+15,-2,-0,-2,-1,0,0,-1,1
1.59101201364371e+15,2,1,-1,-2,0,0,0,2
1.59101201364371e+15,-1,-1,-1,-2,-1,-1,-3,1
1.59101201364459e+15,-2,-2,0,-2,-2,-2,-8,-8
1.59101201364459e+15,-1,1,-2,-3,0,0,3,9
1.59101201365757e+15,-1,-1,0,2,0,0,-3,-5
1.59101201365757e+15,-1,-1,0,-1,-3,-3,-1,-4
1.59101201365757e+15,-1,-0,-1,-3,-2,-2,4,1
1.59101201365757e+15,-1,-2,0,-1,0,0,-7,-10
1.59101201368759e+15,0,1,-2,-2,1,1,5,6
1.59101201368759e+15,2,1,-1,0,-1,-1,1,3
1.59101201368847e+15,-2,-2,-2,-2,-1,-1,-3,-3
1.59101201368847e+15,-2,-2,-1,-2,-3,-3,-2,-4
1.59101201370252e+15,-3,-0,1,-3,-1,-1,0,-2
1.59101201370252e+15,-1,-1,1,0,0,0,-3,-4
1.59101201370343e+15,0,2,-1,0,0,0,4,4
1.59101201370343e+15,-2,-0,-1,0,-1,-1,0,2
1.59101201372538e+15,-3,-2,-2,-3,1,1,0,-3
1.59101201372538e+15,-1,-1,-2,0,-3,-3,-3,-3
1.59101201372641e+15,1,-0,0,-1,0,0,0,0
1.59101201372641e+15,-4,-1,-1,1,-1,-1,-3,-4
1.59101201374133e+15,-1,-2,-2,-3,-4,-4,-4,-3
1.59101201374133e+15,-1,-1,1,-3,-1,-1,-4,-2
1.59101201374133e+15,-1,-1,0,-2,-2,-2,-2,0
1.59101201374133e+15,0,1,-2,0,0,0,2,4
1.59101201377125e+15,-1,-1,-1,-1,-2,-2,-2,-5
1.59101201377125e+15,-1,1,-1,-1,1,1,3,1
1.59101201377195e+15,-1,1,0,2,-1,-1,0,1
1.59101201377195e+15,0,-1,-1,-3,-3,-3,-3,-5
1.59101201377708e+15,0,1,0,1,-1,-1,-1,1
1.59101201377708e+15,-1,-1,-3,-2,-1,-1,-3,0
1.59101201377794e+15,-1,-0,-2,-1,1,1,-2,-3
1.59101201377794e+15,-1,-0,0,0,-2,-2,1,0
1.59101201380089e+15,-1,-0,-1,-1,1,1,-1,0
1.59101201380089e+15,-2,-2,-3,-1,-3,-3,-1,-1
1.59101201380089e+15,0,-0,-1,0,-1,-1,-1,-2
1.59101201380089e+15,-6,-2,-1,-1,-2,-2,-2,-2
1.59101201382381e+15,0,-1,-1,-1,-2,-2,0,-2
1.59101201382381e+15,-1,-1,-1,0,0,0,0,-2
1.59101201382381e+15,-1,1,-2,-2,0,0,3,6
1.59101201382381e+15,0,-2,-1,-2,-2,-2,-2,-3
1.59101201383682e+15,-1,-1,-2,-1,-2,-2,0,-1
1.59101201383682e+15,-1,-1,-1,-2,-1,-1,-1,-2
1.59101201383778e+15,0,-1,-1,0,-2,-2,-2,-4
1.59101201383778e+15,2,-0,-2,0,-1,-1,0,-3
1.59101201386072e+15,-3,-0,0,-1,-1,-1,2,2
1.59101201386072e+15,0,-1,-2,-1,-1,-1,-1,-2
1.59101201386172e+15,-1,-1,-1,-1,-1,-1,0,-1
1.59101201386172e+15,-1,-1,-1,-1,-2,-2,1,-1
1.59101201388267e+15,-1,-2,0,-1,-2,-2,-7,-6
1.59101201388267e+15,-1,-0,-1,-4,0,0,1,2
1.59101201388983e+15,-2,-2,-1,-4,0,0,-2,-4
1.59101201388983e+15,-1,-1,-1,0,-3,-3,-3,-3
1.59101201389781e+15,-1,-1,-2,-2,-1,-1,-1,2
1.59101201389781e+15,2,-0,-1,-1,-2,-2,-3,-2
1.59101201389781e+15,-1,-0,-1,-1,-1,-1,2,2
1.59101201389781e+15,1,-1,-1,-1,-1,-1,-3,-3
1.59101201392066e+15,-1,-2,-1,-1,-2,-2,-6,-6
1.59101201392066e+15,1,2,1,-1,0,0,1,5
1.59101201392156e+15,-2,-0,-1,0,1,1,1,2
1.59101201392156e+15,-2,-1,-2,-1,0,0,0,-2
1.59101201394275e+15,-2,-0,-2,0,-1,-1,0,-3
1.59101201394275e+15,-2,-1,-1,-1,-2,-2,-2,-3
1.5910120139435e+15,0,-0,0,0,-1,-1,-2,0
1.5910120139435e+15,-2,-0,1,-2,1,1,1,-2
1.59101201396548e+15,-2,-1,-1,0,-1,-1,-4,-3
1.59101201396548e+15,0,-1,-2,0,-2,-2,-3,0
1.59101201397255e+15,1,-1,-3,-3,-3,-3,-1,-1
1.59101201397255e+15,1,-1,-3,-1,-1,-1,-3,0
1.59101201398161e+15,-1,-1,-2,-1,-1,-1,-1,-2
1.59101201398161e+15,-1,-1,-1,2,-1,-1,-1,-1
1.59101201398161e+15,-1,-1,-2,-1,0,0,-3,0
1.59101201398161e+15,2,1,-1,-1,1,1,2,0
1.59101201400253e+15,-2,-1,-2,-1,-1,-1,-1,-1
1.59101201400253e+15,-4,-1,-1,-1,-2,-2,0,-1
1.59101201400353e+15,-1,-1,0,0,-2,-2,-1,0
1.59101201400353e+15,-1,-1,2,0,0,0,-2,-1
1.59101201401764e+15,1,-1,1,1,-1,-1,-1,-7
1.59101201401764e+15,1,2,0,-2,0,0,3,5
1.59101201403248e+15,-2,-0,-1,-3,0,0,-1,-4
1.59101201403248e+15,-1,-1,-1,-1,-1,-1,-4,0
1.59101201404152e+15,-2,-0,-1,-3,-4,-4,1,1
1.59101201404152e+15,-2,1,-1,1,-1,-1,0,-2
1.59101201404243e+15,-3,-2,-1,-2,0,0,-2,-2
1.59101201404243e+15,0,-0,-1,0,-2,-2,-2,1
1.59101201406337e+15,2,1,1,0,1,1,0,3
1.59101201406337e+15,0,-2,-2,-3,-2,-2,-4,-3
1.59101201406437e+15,-2,-2,-4,-3,-4,-4,-2,0
1.59101201406437e+15,-4,-2,-2,-1,0,0,-1,-6
1.59101201407638e+15,0,-0,0,1,-1,-1,2,4
1.59101201407638e+15,-2,-3,-3,-2,-2,-2,-4,-5
1.59101201408436e+15,1,-0,-1,0,-1,-1,1,-1
1.59101201408436e+15,-2,-1,0,-1,-2,-2,-2,-4
1.59101201410031e+15,1,2,-1,-2,1,1,3,5
1.59101201410031e+15,-2,-1,-3,-2,0,0,3,-3
1.59101201410725e+15,0,-0,0,-3,1,1,-3,1
1.59101201410725e+15,-3,-1,-1,-1,-1,-1,-1,-3
1.59101201413019e+15,0,-0,-1,1,-2,-2,0,0
1.59101201413019e+15,-3,-3,-2,0,-2,-2,-6,-12
1.59101201413824e+15,1,3,0,1,0,0,5,9
1.59101201413824e+15,-5,-1,-2,-1,-1,-1,0,1
1.59101201414017e+15,-1,-0,0,-2,-1,-1,-2,-1
1.59101201414017e+15,-2,-0,0,1,0,0,-3,-5
1.59101201414117e+15,-1,-0,0,-1,-1,-1,-1,-2
1.59101201414117e+15,2,-0,-1,0,-2,-2,0,0
1.59101201416084e+15,-1,-1,-3,-2,-3,-3,-2,-5
1.59101201416084e+15,0,1,0,-2,0,0,1,6
1.59101201416084e+15,-3,-2,-1,-4,-2,-2,-4,-2
1.59101201416084e+15,-1,-0,0,0,-1,-1,2,3
1.59101201419081e+15,-2,-1,-1,-3,-1,-1,-2,0
1.59101201419081e+15,0,-1,-1,0,-2,-2,-2,-1
1.59101201419176e+15,-3,-1,-3,-1,-1,-1,-2,-1
1.59101201419176e+15,-1,-1,-1,-2,-2,-2,1,-4
1.5910120141968e+15,0,-1,-1,0,-1,-1,-1,-4
1.5910120141968e+15,0,-0,0,-2,0,0,-2,1
1.59101201420477e+15,0,-0,0,-1,-1,-1,0,-2
1.59101201420477e+15,-1,1,-1,0,2,2,0,-2
1.59101201422766e+15,0,1,0,0,-2,-2,3,3
1.59101201422766e+15,-1,-0,-1,-1,0,0,-1,0
1.59101201423564e+15,-4,-4,-2,-4,-3,-3,-7,-11
1.59101201423564e+15,0,1,-1,-2,-1,-1,2,8
1.59101201424461e+15,0,2,0,1,-1,-1,2,2
1.59101201424461e+15,0,-1,-2,-2,-1,-1,-1,-1
1.59101201424562e+15,-1,-2,-1,-2,-2,-2,-4,-6
1.59101201424562e+15,-2,-0,-1,-3,0,0,-1,2
1.5910120142568e+15,-2,-1,-2,-2,-1,-1,-4,-2
1.5910120142568e+15,-3,-0,-2,0,-2,-2,1,0
1.5910120142648e+15,0,-0,-1,-1,-1,-1,-2,0
1.5910120142648e+15,-1,-1,0,-1,-2,-2,-3,-1
1.59101201428165e+15,-1,-0,-1,0,0,0,0,1
1.59101201428165e+15,0,-1,-1,-2,-1,-1,-2,-1
1.59101201428165e+15,-1,-0,-3,-2,-2,-2,0,0
1.59101201428165e+15,-1,-1,-3,-1,-1,-1,-3,-4
1.59101201430269e+15,-3,-1,-1,1,0,0,-3,-8
1.59101201430269e+15,0,1,0,-1,-1,-1,3,4
1.59101201430347e+15,-1,-2,-1,0,0,0,-4,-6
1.59101201430347e+15,-1,1,0,0,0,0,4,4
1.59101201431667e+15,-1,-0,-1,-1,0,0,1,0
1.59101201431667e+15,-1,-1,-2,-2,-1,-1,-4,-1
1.5910120143254e+15,-1,-0,0,-1,-2,-2,-2,0
1.5910120143254e+15,-4,-1,-1,0,0,0,-1,-2
1.59101201434136e+15,-3,-1,-3,-1,-2,-2,0,-2
1.59101201434136e+15,-2,-1,0,0,0,0,-3,-4
1.59101201434136e+15,-1,-0,0,0,-1,-1,2,4
1.59101201434136e+15,1,-2,-1,-1,-1,-1,-4,-6
1.59101201436221e+15,-1,-1,0,-2,0,0,-2,-1
1.59101201436221e+15,-1,-1,-1,-1,-1,-1,-1,-3
1.59101201436318e+15,-3,-2,-2,-1,-1,-1,-3,-5
1.59101201436318e+15,1,1,-1,-1,0,0,3,4
1.59101201437624e+15,-1,-0,-1,1,-1,-1,0,1
1.59101201437624e+15,0,-0,-1,-1,-2,-2,-2,1
1.59101201438522e+15,0,-0,-2,-1,1,1,0,0
1.59101201438522e+15,0,-1,1,-1,-2,-2,-4,-4
1.59101201440017e+15,1,-0,1,0,-1,-1,-2,-2
1.59101201440017e+15,-1,-0,2,0,-1,-1,-2,-3
1.59101201440108e+15,-1,2,0,1,-3,-3,4,6
1.59101201440108e+15,-1,-3,-4,-2,-2,-2,-5,-7
1.59101201442305e+15,1,-0,-1,-1,-1,-1,-2,3
1.59101201442305e+15,-1,-1,-2,-1,-1,-1,-2,-1
1.59101201442402e+15,0,-0,0,-1,-2,-2,0,-1
1.59101201442402e+15,-1,-1,-1,-2,-1,-1,-4,-2
1.59101201443698e+15,-2,-2,-3,0,-2,-2,-4,-3
1.59101201443698e+15,-1,-1,-1,-4,-1,-1,-1,1
1.59101201444496e+15,-3,-2,1,-3,-1,-1,-3,-3
1.59101201444496e+15,1,1,-2,-1,-1,-1,2,-1
1.59101201445992e+15,0,-2,1,-1,-2,-2,-5,-6
1.59101201445992e+15,-2,-1,1,1,-2,-2,-2,-4
1.59101201446698e+15,1,2,0,-1,0,0,3,3
1.59101201446698e+15,0,-0,-1,-2,-1,-1,0,0
1.59101201448286e+15,-2,-1,-3,-3,-1,-1,-1,0
1.59101201448286e+15,-1,-0,-2,0,0,0,0,-2
1.59101201448386e+15,-4,-2,-1,-2,0,0,-1,-4
1.59101201448386e+15,0,-1,1,-1,-1,-1,-2,-1
1.59101201450587e+15,0,-2,-2,-1,-1,-1,-2,-3
1.59101201450587e+15,-1,-0,-2,-1,-1,-1,0,0
1.59101201450587e+15,-1,-0,-2,2,-2,-2,-1,0
1.59101201450587e+15,2,-1,-2,-2,-2,-2,-1,-2
1.59101201452779e+15,-1,-0,1,1,-1,-1,-3,0
1.59101201452779e+15,0,-0,-1,0,-1,-1,-1,0
1.59101201452874e+15,0,-0,-2,-3,1,1,1,1
1.59101201452874e+15,-3,-0,1,-1,-1,-1,-1,-2
1.59101201454293e+15,-2,-1,1,-1,-2,-2,-1,-5
1.59101201454293e+15,0,-1,0,-2,-1,-1,0,1
1.5910120145437e+15,-2,-2,-2,-1,-1,-1,-4,-5
1.5910120145437e+15,-3,-0,-2,-1,-1,-1,-1,2
1.59101201456464e+15,1,1,-1,0,1,1,0,2
1.59101201456464e+15,-2,-2,0,-1,-1,-1,-3,-4
1.59101201457262e+15,-1,-1,-1,-2,-2,-2,1,-2
1.59101201457262e+15,0,-1,-1,-2,0,0,-3,-4
1.5910120145796e+15,-1,-0,0,-1,-2,-2,1,1
1.5910120145796e+15,-1,-2,-4,-1,-2,-2,-3,-2
1.59101201459456e+15,0,-0,0,-1,-2,-2,0,-1
1.59101201459456e+15,-2,-1,-1,0,-1,-1,0,-3
1.5910120146026e+15,0,-0,-2,-1,-1,-1,1,-1
1.5910120146026e+15,0,-0,-1,0,0,0,0,0
1.59101201460354e+15,-2,-1,-1,-2,-1,-1,-3,-1
1.59101201460354e+15,-1,-0,-1,1,0,0,0,1
1.59101201462562e+15,0,1,1,-1,0,0,2,3
1.59101201462562e+15,-2,-1,-1,-2,-1,-1,-1,0
1.59101201462647e+15,-2,-1,-1,-1,-2,-2,-2,-3
1.59101201462647e+15,-1,-2,-1,-1,-2,-2,-4,-5
1.59101201464055e+15,0,-0,-1,-2,1,1,0,-1
1.59101201464055e+15,-1,-0,-2,-1,0,0,-1,-1
1.59101201464143e+15,-1,-2,-2,0,-2,-2,-5,-2
1.59101201464143e+15,-2,-0,-2,-1,-2,-2,1,0
1.59101201466281e+15,-1,-0,-4,-1,-1,-1,0,-1
1.59101201466281e+15,0,-1,-1,-2,-1,-1,-4,-3
1.59101201466381e+15,-3,-1,-3,-2,-2,-2,0,2
1.59101201466381e+15,-3,-1,-1,-2,-2,-2,1,0
1.59101201468602e+15,0,1,0,0,0,0,-1,3
1.59101201468602e+15,0,-0,-1,0,0,0,2,1
1.59101201468602e+15,-2,-1,-3,-3,-1,-1,-1,-2
1.59101201468602e+15,0,-0,1,0,0,0,-1,-2
1.59101201469884e+15,-3,-1,-1,-1,-1,-1,-1,-2
1.59101201469884e+15,-3,-0,-1,0,-2,-2,1,-2
1.59101201471378e+15,-1,-0,0,-1,0,0,-3,-2
1.59101201471378e+15,-1,-1,0,-1,-2,-2,-2,-3
1.59101201472274e+15,-1,-1,-2,-1,-1,-1,-1,-2
1.59101201472274e+15,-1,-1,-1,-1,-1,-1,-3,-5
1.59101201472464e+15,6,2,-2,-1,-1,-1,2,6
1.59101201472464e+15,-1,-1,-2,-1,-1,-1,0,-1
1.59101201474559e+15,-5,-3,-1,0,-3,-3,-4,-4
1.59101201474559e+15,0,1,0,-3,-1,-1,1,5
1.59101201474659e+15,-2,-0,0,-3,-1,-1,0,4
1.59101201474659e+15,0,-0,-1,-2,-1,-1,-2,0
1.59101201475957e+15,2,-1,0,-1,-1,-1,-1,-4
1.59101201475957e+15,-2,-0,0,-1,-2,-2,1,-2
1.59101201476853e+15,-1,-1,0,-2,1,1,-3,-5
1.59101201476853e+15,0,-2,-1,-2,-3,-3,-1,-2
1.59101201479072e+15,-2,-0,0,0,-1,-1,1,2
1.59101201479072e+15,-1,1,0,-2,0,0,2,2
1.59101201479247e+15,-2,-2,-1,-1,-2,-2,-5,-6
1.59101201479247e+15,0,2,-1,2,1,1,2,2
1.59101201480543e+15,-1,-1,-1,-2,-2,-2,-2,-5
1.59101201480543e+15,0,-1,-1,0,-2,-2,-4,-3
1.59101201480742e+15,0,-1,-1,2,-1,-1,1,-7
1.59101201480742e+15,-2,-1,-2,-1,0,0,-1,0
1.5910120148194e+15,0,-1,-1,-2,-2,-2,-1,-2
1.5910120148194e+15,-1,-1,-2,-3,-1,-1,-3,-1
1.59101201482837e+15,-4,1,-1,-2,2,2,2,1
1.59101201482837e+15,-2,-3,-1,1,-2,-2,-6,-10
1.59101201484333e+15,-1,1,-1,-1,1,1,1,7
1.59101201484333e+15,-1,-0,-3,0,0,0,1,3
1.59101201485629e+15,-1,-1,1,-2,-1,-1,-1,-1
1.59101201485629e+15,-2,-1,0,-1,-2,-2,-1,-1
1.59101201486527e+15,-1,-1,-1,-1,-1,-1,-3,-2
1.59101201486527e+15,1,-0,-1,-1,-1,-1,-2,-3
1.59101201486726e+15,1,-0,-2,2,0,0,-1,-2
1.59101201486726e+15,-2,-3,-3,-4,-4,-4,-3,0
1.59101201487938e+15,-2,-1,-1,-2,-2,-2,-3,2
1.59101201487938e+15,-1,1,0,-2,1,1,-1,2
1.59101201488821e+15,-1,-1,-2,-2,-1,-1,-1,-2
1.59101201488821e+15,-2,-0,-1,0,-1,-1,0,-3
1.59101201490331e+15,-1,-0,-4,1,-2,-2,-2,-1
1.59101201490331e+15,-2,-1,-1,-1,-1,-1,-1,0
1.59101201490955e+15,-2,-1,0,-3,-1,-1,1,0
1.59101201490955e+15,1,1,1,-1,-2,-2,2,3
1.59101201492625e+15,-2,-1,-2,-1,0,0,-4,-8
1.59101201492625e+15,-1,2,0,0,-1,-1,5,7
1.59101201493223e+15,-2,-2,-2,0,-2,-2,-3,-5
1.59101201493223e+15,-1,-0,-3,-2,0,0,1,5
1.59101201494843e+15,1,-1,0,-3,-2,-2,-1,-2
1.59101201494843e+15,-2,-2,-1,-1,-1,-1,-5,-6
1.59101201494919e+15,0,-0,-2,-2,0,0,-2,-2
1.59101201494919e+15,0,-0,-1,-2,-1,-1,1,0
1.59101201496318e+15,2,-1,-1,-1,0,0,-3,-5
1.59101201496318e+15,-1,-1,-2,-1,-2,-2,-3,1
1.59101201496415e+15,0,2,1,0,-1,-1,2,5
1.59101201496415e+15,-2,-1,0,0,-1,-1,-1,-4
1.59101201498513e+15,0,-1,0,0,-2,-2,-1,0
1.59101201498513e+15,-2,-2,-3,-2,-1,-1,-3,-5
1.59101201498709e+15,-1,-1,-2,-1,-1,-1,0,-2
1.59101201498709e+15,2,1,0,1,0,0,-1,1
1.5910120149991e+15,-4,-0,-1,1,0,0,-3,-4
1.5910120149991e+15,0,-0,-2,-1,-1,-1,2,3
1.59101201500803e+15,-2,-0,0,1,-1,-1,0,0
1.59101201500803e+15,-1,-1,-3,-2,0,0,-1,0
1.5910120150227e+15,1,-0,-2,-1,-2,-2,0,-1
1.5910120150227e+15,0,-1,1,-1,-1,-1,-3,-4
1.59101201502467e+15,-1,-1,0,-1,-1,-1,-3,0
1.59101201502467e+15,-2,-1,-1,-1,-1,-1,0,-4
1.5910120150457e+15,-3,-1,-1,0,-1,-1,-2,0
1.5910120150457e+15,0,1,-1,-1,0,0,2,2
1.59101201504687e+15,-1,-0,-1,-1,-1,-1,0,-2
1.59101201504687e+15,-3,-0,-1,-3,-2,-2,0,5
1.59101201505858e+15,0,-1,-1,-3,-1,-1,0,0
1.59101201505858e+15,-4,-2,-1,-2,-2,-2,0,-3
1.59101201506756e+15,1,-0,0,0,0,0,0,0
1.59101201506756e+15,-1,-3,-3,-1,2,2,-5,-10
1.59101201508276e+15,-3,-1,-3,0,0,0,0,1
1.59101201508276e+15,0,-0,-2,-2,0,0,0,1
1.59101201508451e+15,-1,-1,-1,-1,-2,-2,-3,-2
1.59101201508451e+15,1,1,1,1,-1,-1,2,4
1.59101201510549e+15,1,-0,-2,1,-1,-1,-2,0
1.59101201510549e+15,0,-1,0,-1,-2,-2,-4,-2
1.59101201510757e+15,-2,-1,0,0,-1,-1,-2,-4
1.59101201510757e+15,-2,-0,-2,-2,-1,-1,0,0
1.59101201511954e+15,-1,-0,1,-2,-2,-2,-2,1
1.59101201511954e+15,-1,-1,-1,-1,-1,-1,-2,0
1.59101201513438e+15,-1,-1,-3,-2,0,0,0,1
1.59101201513438e+15,-1,-1,0,0,-1,-1,-4,-5
1.59101201514335e+15,-1,-1,-1,-3,-2,-2,0,-2
1.59101201514335e+15,-2,-1,-3,-2,0,0,-3,-3
1.59101201514947e+15,0,-0,-1,0,-1,-1,3,-1
1.59101201514947e+15,-2,-1,1,0,-1,-1,-1,-2
1.59101201516541e+15,-3,-1,-1,-2,-2,-2,0,-2
1.59101201516541e+15,0,-0,-2,-1,-2,-2,-2,-1
1.59101201516729e+15,0,-0,-1,-2,-1,-1,0,1
1.59101201516729e+15,-1,-0,-1,-1,0,0,-2,-3
1.59101201517933e+15,0,1,0,-1,-1,-1,2,1
1.59101201517933e+15,-1,-1,0,-1,-2,-2,-4,-4
1.59101201518824e+15,-2,-0,-1,-3,-1,-1,0,4
1.59101201518824e+15,-1,-2,-3,-3,-2,-2,-2,-1
1.59101201520324e+15,1,-0,0,-3,0,0,2,2
1.59101201520324e+15,0,-0,0,0,0,0,-2,-2
1.59101201520519e+15,2,-1,-2,0,-1,-1,-3,-4
1.59101201520519e+15,0,-0,-1,1,-1,-1,-1,-1
1.59101201522614e+15,-2,-1,0,-2,-1,-1,-2,-4
1.59101201522614e+15,-2,-1,-1,-1,0,0,-1,1
1.59101201522714e+15,-1,-1,-2,0,0,0,-4,0
1.59101201522714e+15,0,-0,-1,0,-3,-3,0,0
1.59101201524011e+15,-2,-0,0,0,-1,-1,-3,-1
1.59101201524011e+15,-1,-1,0,-1,-3,-3,0,-4
1.59101201524808e+15,-5,-2,-1,-1,0,0,-2,-5
1.59101201524808e+15,0,1,-1,0,-1,-1,2,1
1.59101201526413e+15,-1,-1,-3,-2,-2,-2,-1,0
1.59101201526413e+15,1,1,-1,-1,-1,-1,1,1
1.59101201526613e+15,-1,-0,1,-1,-2,-2,-1,-1
1.59101201526613e+15,-1,-2,-2,-3,1,1,-2,-6
1.59101201528609e+15,1,-0,-1,0,0,0,0,2
1.59101201528609e+15,-3,-1,-1,-1,0,0,-3,-2
1.59101201528708e+15,0,-1,-2,-1,-2,-2,-1,-4
1.59101201528708e+15,0,-0,-1,-2,-2,-2,-1,0
1.59101201529924e+15,1,-0,-2,-1,-2,-2,0,-1
1.59101201529924e+15,-1,-1,-3,-3,-2,-2,0,-1
1.59101201530802e+15,0,-0,-1,-1,-1,-1,3,-5
1.59101201530802e+15,-1,1,-1,-2,-1,-1,1,6
1.59101201532307e+15,0,-1,-1,1,-1,-1,-2,-1
1.59101201532307e+15,-1,-0,-2,-2,-1,-1,-1,-2
1.59101201532497e+15,0,-1,0,-1,-1,-1,-3,-5
1.59101201532497e+15,0,1,-2,-3,-1,-1,4,1
1.59101201534592e+15,-1,-1,-2,-2,-3,-3,-2,-1
1.59101201534592e+15,-2,-2,-1,-3,-2,-2,-3,-2
1.59101201534791e+15,0,-0,-2,-1,0,0,-2,2
1.59101201534791e+15,-1,-0,1,-1,1,1,-2,-1
1.59101201535894e+15,-2,-2,-3,-2,-2,-2,-4,1
1.59101201535894e+15,1,-2,-3,-1,-2,-2,-2,-5
1.59101201536786e+15,-2,-0,-1,-2,-2,-2,1,5
1.59101201536786e+15,-1,-0,-1,1,-1,-1,0,-3
1.59101201538304e+15,-1,-0,-1,0,0,0,-1,-1
1.59101201538304e+15,-2,-1,1,0,-1,-1,-3,0
1.59101201538481e+15,-1,-0,0,-1,-1,-1,0,1
1.59101201538481e+15,-2,-1,-2,-1,0,0,0,-1
1.59101201540576e+15,-1,-1,0,-1,-2,-2,-2,-2
1.59101201540576e+15,-1,-2,-2,-1,-2,-2,-2,-3
1.59101201540676e+15,-1,-2,0,-2,-2,-2,-6,-5
1.59101201540676e+15,-1,-0,-1,-2,-1,-1,3,7
1.5910120154287e+15,-1,-0,-1,-1,-1,-1,1,-1
1.5910120154287e+15,-1,-1,-1,-1,-1,-1,-4,-4
1.59101201543375e+15,2,1,-2,0,-1,-1,2,3
1.59101201543375e+15,-2,-2,-1,-2,-2,-2,-3,-5
1.59101201544293e+15,-1,-1,-2,-1,-1,-1,-3,-3
1.59101201544293e+15,-2,-1,0,-1,-2,-2,0,-1
1.59101201544465e+15,-2,-1,-1,-2,0,0,-1,-1
1.59101201544465e+15,-2,-1,-1,0,-1,-1,-2,-4
1.59101201546465e+15,-2,-1,-1,-1,-1,-1,-2,-3
1.59101201546465e+15,-1,-0,0,-1,-1,-1,1,1
1.59101201547358e+15,-2,-1,-2,-1,-1,-1,0,-1
1.59101201547358e+15,-1,-2,-3,-2,-1,-1,-3,-2
1.59101201548953e+15,-2,-1,-2,-2,-1,-1,-1,-5
1.59101201548953e+15,-1,-0,1,-1,0,0,-1,0
1.59101201549053e+15,-1,-2,-1,-1,-3,-3,-3,-2
1.59101201549053e+15,0,2,1,1,-3,-3,4,4
1.59101201550255e+15,1,1,-1,0,-2,-2,1,3
1.59101201550255e+15,-1,-1,-4,-1,0,0,-1,0
1.59101201550449e+15,-1,1,-1,1,0,0,-1,-1
1.59101201550449e+15,-1,-3,-2,-1,-1,-1,-8,-12
1.59101201552547e+15,-1,1,-1,-1,-1,-1,4,7
1.59101201552547e+15,-3,-2,-2,-4,0,0,-2,-4
1.59101201552743e+15,-1,-1,-1,-1,0,0,0,2
1.59101201552743e+15,2,-0,-2,-2,0,0,-2,-2
1.59101201555463e+15,-3,-1,-1,0,-1,-1,-2,-2
1.59101201555463e+15,4,1,-1,0,0,0,0,-2
1.59101201556533e+15,-3,-1,-2,-1,-1,-1,-2,-2
1.59101201556533e+15,-1,-0,-1,1,0,0,-2,-1
1.59101201556633e+15,-2,-1,-1,-3,-2,-2,0,0
1.59101201556633e+15,-3,-1,-2,-1,-2,-2,-2,-2
1.59101201556932e+15,-1,-1,0,-2,-2,-2,0,-4
1.59101201556932e+15,2,3,-1,2,1,1,6,7
1.59101201558552e+15,-1,-2,0,0,-3,-3,-10,-4
1.59101201558552e+15,-2,-1,0,0,0,0,-1,-4
1.59101201558727e+15,0,-0,-1,-1,-1,-1,0,1
1.59101201558727e+15,-2,-1,-1,-1,-1,-1,-4,-3
1.59101201560821e+15,-2,-1,-2,0,0,0,-2,-3
1.59101201560821e+15,-2,-1,-1,-1,-3,-3,0,0
1.59101201560921e+15,-2,-2,-1,-3,0,0,-2,-5
1.59101201560921e+15,0,-0,-2,-2,0,0,1,1
1.59101201562218e+15,-4,-1,0,-2,-1,-1,-3,-3
1.59101201562218e+15,-2,-1,-1,-1,-1,-1,-2,0
1.5910120156292e+15,-1,-1,-1,-1,-2,-2,-1,-4
1.5910120156292e+15,-2,-0,0,1,-2,-2,-1,-1
1.59101201564511e+15,0,-1,-1,-2,0,0,0,-2
1.59101201564511e+15,-2,-1,-2,-2,-2,-2,0,1
1.59101201565908e+15,-1,-0,-3,-1,-1,-1,0,2
1.59101201565908e+15,-2,-1,0,-1,-2,-2,-2,-2
1.59101201566808e+15,0,-1,-1,-1,-3,-3,-1,0
1.59101201566808e+15,0,-0,-1,0,0,0,2,-2
1.59101201567007e+15,0,-1,-1,-2,-2,-2,0,-2
1.59101201567007e+15,-2,-1,-1,-3,-3,-3,1,1
1.59101201568216e+15,0,-0,-2,1,0,0,-1,-2
1.59101201568216e+15,-2,-1,-2,-3,-1,-1,2,1
1.59101201568915e+15,-1,-0,-1,0,1,1,-3,-2
1.59101201568915e+15,-1,-2,-1,-1,-1,-1,-2,-5
1.59101201570609e+15,-1,1,1,-1,0,0,2,0
1.59101201570609e+15,-2,-3,-2,-3,-2,-2,-6,-4
1.591012015708e+15,0,-1,-3,-1,-2,-2,-2,0
1.591012015708e+15,0,-1,-1,-3,-2,-2,1,2
1.5910120157359e+15,-1,-0,-1,-1,-2,-2,0,0
1.5910120157359e+15,-2,-1,-1,-1,-2,-2,-2,-4
1.5910120157429e+15,-2,-1,-1,-2,-2,-2,-1,-1
1.5910120157429e+15,0,-0,0,-1,0,0,-3,0
1.59101201574385e+15,2,-0,-2,-3,-2,-2,0,1
1.59101201574385e+15,1,-0,0,-1,0,0,0,-3
1.59101201574902e+15,-1,-1,-1,-2,-1,-1,-1,-1
1.59101201574902e+15,-3,-0,-1,0,0,0,-2,-2
1.5910120157648e+15,-2,-1,0,-2,0,0,-2,1
1.5910120157648e+15,-1,-0,1,-2,-2,-2,1,2
1.59101201578075e+15,-1,-1,-2,-2,0,0,-2,-2
1.59101201578075e+15,0,-1,-1,0,0,0,-4,-2
1.59101201578787e+15,0,-0,-1,0,-1,-1,0,-1
1.59101201578787e+15,-2,-1,-3,0,0,0,-5,-2
1.59101201578973e+15,1,-0,1,0,0,0,-2,-4
1.59101201578973e+15,-1,-0,-1,1,-2,-2,0,0
1.59101201580274e+15,-1,-0,-1,1,0,0,2,-1
1.59101201580274e+15,0,-0,-1,0,1,1,0,-2
1.59101201580882e+15,-1,-0,-1,-2,0,0,0,2
1.59101201580882e+15,-2,-2,-1,-1,-1,-1,-2,-6
1.59101201582574e+15,-2,1,-1,-1,-2,-2,0,3
1.59101201582574e+15,-1,-0,-1,-3,-2,-2,2,4
1.59101201582663e+15,-3,-1,-2,-3,-2,-2,-1,-1
1.59101201582663e+15,0,-0,-1,-1,-2,-2,0,0
1.5910120158486e+15,1,-0,-1,-2,0,0,0,1
1.5910120158486e+15,-1,-1,-1,0,0,0,-4,-2
1.59101201585456e+15,-1,-1,-1,0,-1,-1,-3,-2
1.59101201585456e+15,0,-1,-1,-3,1,1,0,-2
1.59101201587055e+15,-1,-1,-2,0,-3,-3,-3,-1
1.59101201587055e+15,-1,1,-1,0,-1,-1,0,2
1.59101201587151e+15,1,-0,0,0,-1,-1,-1,-1
1.59101201587151e+15,2,-1,-1,-2,-1,-1,-2,-1
1.59101201588562e+15,-1,-0,-1,0,1,1,-3,-2
1.59101201588562e+15,-3,-0,-1,-1,0,0,1,1
1.59101201588647e+15,-2,-1,-2,-4,-4,-4,0,3
1.59101201588647e+15,-2,-1,-2,0,-1,-1,-1,-1
1.59101201590756e+15,-1,-3,-2,-3,-1,-1,-7,-9
1.59101201590756e+15,0,1,0,-1,-1,-1,1,4
1.59101201591539e+15,-4,-2,0,-4,-2,-2,-2,-1
1.59101201591539e+15,-1,-0,-1,-1,-2,-2,0,1
1.59101201592149e+15,-2,-1,-1,-1,-1,-1,-1,-4
1.59101201592149e+15,-1,-1,-1,-1,0,0,-3,-5
1.59101201593833e+15,-1,1,-2,1,1,1,2,-3
1.59101201593833e+15,1,1,-1,-2,0,0,0,4
1.59101201594531e+15,-1,-0,-1,-2,-2,-2,0,1
1.59101201594531e+15,-2,-1,-3,-2,-2,-2,-1,-3
1.59101201594731e+15,-2,-1,-2,-2,-1,-1,0,-2
1.59101201594731e+15,-1,-1,0,-2,0,0,-2,-4
1.59101201596835e+15,-1,-0,-2,-4,0,0,0,-2
1.59101201596835e+15,0,-1,-1,-2,-1,-1,-3,-1
1.5910120159693e+15,-1,-1,-2,-2,-1,-1,-1,-1
1.5910120159693e+15,0,1,0,1,-1,-1,0,0
1.59101201598232e+15,-2,-1,-1,-1,-2,-2,-2,-3
1.59101201598232e+15,-4,-2,-2,-1,-1,-1,-2,-7
1.59101201599083e+15,1,-1,-2,-2,-2,-2,0,-2
1.59101201599083e+15,0,1,0,-2,-2,-2,0,4
1.5910120160063e+15,0,-0,-2,-2,-2,-2,1,0
1.5910120160063e+15,-2,-0,0,1,-1,-1,1,-1
1.5910120160083e+15,-1,-2,-2,-3,-2,-2,-5,-2
1.5910120160083e+15,-2,-1,-2,-3,0,0,-1,1
1.59101201602824e+15,-1,-1,-1,1,-2,-2,-7,0
1.59101201602824e+15,1,-1,0,-3,-2,-2,0,0
1.59101201602925e+15,0,1,-1,0,-2,-2,2,6
1.59101201602925e+15,-1,-1,-1,-2,-2,-2,0,-1
1.59101201604135e+15,1,-0,1,-2,0,0,-5,-2
1.59101201604135e+15,-2,1,-1,-3,0,0,4,4
1.5910120160502e+15,-1,-1,-3,0,-1,-1,-1,-4
1.5910120160502e+15,-2,-1,-1,-1,1,1,-1,-2
1.59101201606592e+15,-1,-0,0,1,0,0,0,-2
1.59101201606592e+15,0,-3,-3,-3,-4,-4,-5,-5
1.59101201606689e+15,-5,-1,0,-1,1,1,-2,1
1.59101201606689e+15,0,-1,-2,-2,0,0,-2,-2
1.59101201608788e+15,-1,-0,0,0,0,0,-2,-2
1.59101201608788e+15,-2,-0,-1,0,0,0,1,1
1.59101201608983e+15,-2,-3,-1,-1,-3,-3,-7,-5
1.59101201608983e+15,2,1,-3,-1,-2,-2,3,7
1.59101201610183e+15,-4,-1,-2,-1,-2,-2,0,0
1.59101201610183e+15,0,-1,-2,-2,0,0,-4,-1
1.59101201611078e+15,-2,-0,-1,-1,0,0,0,1
1.59101201611078e+15,-1,-0,1,0,-2,-2,0,-1
1.59101201612578e+15,0,-1,0,-3,-3,-3,-1,0
1.59101201612578e+15,-3,-1,-2,0,-2,-2,-1,0
1.59101201612674e+15,-2,-2,-2,-1,-1,-1,-4,-6
1.59101201612674e+15,-2,-2,-3,-1,-2,-2,-3,-4
1.59101201614772e+15,-2,-0,-2,0,-2,-2,2,1
1.59101201614772e+15,0,-1,1,-1,-2,-2,-2,-4
1.5910120161537e+15,1,-0,1,-1,-1,-1,0,-1
1.5910120161537e+15,0,-0,0,-1,-1,-1,-3,-2
1.59101201616168e+15,-2,-1,-1,-1,1,1,-3,-1
1.59101201616168e+15,-2,-2,-4,-3,-4,-4,-4,-3
1.59101201617825e+15,-1,-0,0,-1,0,0,-1,-3
1.59101201617825e+15,-1,-0,-1,0,0,0,0,-4
1.59101201618622e+15,2,1,0,2,0,0,-1,-1
1.59101201618622e+15,-2,1,-1,-2,1,1,2,3
1.59101201618821e+15,1,1,0,-2,-2,-2,5,5
1.59101201618821e+15,-2,-2,-1,-1,-1,-1,-4,-7
1.59101201620839e+15,1,-0,-2,-1,-3,-3,0,4
1.59101201620839e+15,2,-0,-1,-1,-1,-1,0,-1
1.59101201620916e+15,-2,-1,0,-1,-2,-2,-2,-4
1.59101201620916e+15,-3,-1,-2,-2,-2,-2,-1,0
1.59101201622212e+15,1,2,0,1,0,0,2,0
1.59101201622212e+15,-1,-0,-1,1,0,0,-2,-1
1.5910120162311e+15,-2,-0,-1,-3,-1,-1,2,2
1.5910120162311e+15,-2,-2,-1,-1,-2,-2,-6,-3
1.59101201624621e+15,-4,-0,-1,-1,1,1,1,-2
1.59101201624621e+15,1,-1,0,-1,0,0,-4,-1
1.59101201624805e+15,0,1,-1,1,1,1,1,2
1.59101201624805e+15,0,-1,-1,-2,-1,-1,-2,-1
1.59101201626725e+15,-2,-1,-1,-4,-1,-1,-1,-1
1.59101201626725e+15,-2,-0,1,-1,-1,-1,0,-3
1.59101201627598e+15,-1,-1,0,-3,-1,-1,-1,-4
1.59101201627598e+15,1,-0,-1,0,-2,-2,1,0
1.59101201628215e+15,-1,-1,-3,-2,0,0,-4,-5
1.59101201628215e+15,-2,-0,-3,0,-2,-2,2,2
1.59101201629093e+15,3,3,-2,1,-3,-3,5,11
1.59101201629093e+15,-3,-1,-1,-2,-1,-1,-1,0
1.59101201630599e+15,-1,-1,-1,-1,-2,-2,0,-2
1.59101201630599e+15,-1,-1,-2,0,1,1,-3,-5
1.59101201630689e+15,1,-0,-1,0,-2,-2,-1,0
1.59101201630689e+15,-2,-0,-1,2,-1,-1,-1,0
1.59101201632784e+15,0,-0,-1,-2,-1,-1,0,3
1.59101201632784e+15,-1,-0,1,-2,0,0,-3,1
1.59101201632987e+15,-1,-1,-1,0,-2,-2,-4,-5
1.59101201632987e+15,-3,-1,-2,-1,0,0,1,0
1.5910120163421e+15,-3,-2,-1,0,-1,-1,-3,-3
1.5910120163421e+15,-4,-1,-2,-2,-2,-2,1,-2
1.59101201635077e+15,-1,-0,-1,0,-1,-1,0,-2
1.59101201635077e+15,-3,-2,-1,-1,-3,-3,-5,-4
1.5910120163656e+15,-2,-1,-2,-3,-2,-2,-3,2
1.5910120163656e+15,2,1,-2,-2,-1,-1,4,4
1.5910120163674e+15,-3,-0,-1,-1,0,0,-1,0
1.5910120163674e+15,-1,-1,-1,-2,1,1,-3,-5
1.59101201638743e+15,0,1,-1,-1,0,0,1,1
1.59101201638743e+15,-1,-2,-1,-1,-4,-4,-3,-2
1.59101201639532e+15,-1,1,-1,0,-1,-1,0,2
1.59101201639532e+15,1,-0,-1,-2,-1,-1,-1,1
1.59101201640955e+15,-2,-0,-2,-1,-1,-1,0,-1
1.59101201640955e+15,-3,-1,-1,-1,-1,-1,-2,-3
1.59101201641826e+15,0,-1,-1,-2,-1,-1,-1,-3
1.59101201641826e+15,-2,-1,-2,-1,-1,-1,-3,0
1.59101201642531e+15,-2,-0,0,-3,0,0,1,-2
1.59101201642531e+15,2,-1,-1,-1,-2,-2,-2,-2
1.59101201642724e+15,-2,-2,0,-2,-1,-1,-5,-4
1.59101201642724e+15,-1,1,0,0,0,0,0,1
1.59101201644822e+15,-1,-2,-2,-1,-2,-2,-6,-1
1.59101201644822e+15,-4,-1,-1,-1,-1,-1,-3,-2
1.59101201644918e+15,-1,1,-1,-2,0,0,4,3
1.59101201644918e+15,0,-0,-1,-2,-2,-2,0,2
1.59101201647017e+15,-1,-0,-2,0,-1,-1,0,0
1.59101201647017e+15,-2,-1,0,-2,-2,-2,-2,-3
1.59101201647212e+15,-3,-3,-3,0,-1,-1,-5,-8
1.59101201647212e+15,0,-0,-1,-1,0,0,1,1
1.59101201648508e+15,-1,-1,0,0,-1,-1,-3,-5
1.59101201648508e+15,0,-0,0,-1,-2,-2,1,1
1.59101201648708e+15,0,-2,-1,-1,-2,-2,-2,-2
1.59101201648708e+15,0,-0,-1,-1,0,0,-1,-2
1.59101201650827e+15,-4,-0,0,-1,-1,-1,1,1
1.59101201650827e+15,-1,-0,-2,0,-1,-1,-1,-1
1.59101201651002e+15,-1,-1,-2,-3,-2,-2,-3,0
1.59101201651002e+15,0,-0,0,-2,0,0,-3,-3
1.5910120165312e+15,0,-0,0,-3,-1,-1,-1,0
1.5910120165312e+15,-1,-1,-2,-3,-1,-1,-1,0
1.59101201653296e+15,1,-1,0,-1,-1,-1,-2,-3
1.59101201653296e+15,-3,1,-2,0,1,1,4,0
1.59101201654492e+15,0,-2,-2,-4,-2,-2,-3,-2
1.59101201654492e+15,-3,1,-2,0,-1,-1,2,5
1.59101201655213e+15,1,-1,-1,-2,-2,-2,-4,-2
1.59101201655213e+15,-2,-0,0,0,0,0,-2,0
1.59101201656833e+15,-3,-1,-2,-1,-1,-1,1,-1
1.59101201656833e+15,1,-0,-2,-2,1,1,-1,-3
1.59101201656932e+15,0,-1,-1,0,-1,-1,-4,-4
1.59101201656932e+15,-1,-0,-1,1,-1,-1,1,2
1.59101201659047e+15,0,-1,-2,-3,-1,-1,-3,-1
1.59101201659047e+15,-2,-1,1,-2,-1,-1,-4,-3
1.59101201659226e+15,-2,-1,-1,-1,-2,-2,1,-2
1.59101201659226e+15,-2,-1,-1,-3,-2,-2,1,2
1.59101201660523e+15,0,-0,-3,0,-1,-1,0,3
1.59101201660523e+15,-5,-1,-1,0,-2,-2,-2,-2
1.59101201661125e+15,-1,1,-1,0,-1,-1,2,0
1.59101201661125e+15,-1,-0,-1,-2,-2,-2,0,-1
1.5910120166282e+15,-2,-0,0,-3,-1,-1,-2,-1
1.5910120166282e+15,0,-0,1,-1,-1,-1,-1,0
1.59101201662916e+15,-1,-0,0,2,0,0,-2,0
1.59101201662916e+15,-1,-1,-3,-1,0,0,-2,-5
1.59101201665116e+15,-1,-2,-3,-1,-2,-2,0,-4
1.59101201665116e+15,1,-0,-1,1,-1,-1,0,-1
1.59101201665639e+15,1,-0,-1,-2,-1,-1,0,1
1.59101201665639e+15,-1,-0,-2,-2,1,1,-2,-2
1.5910120166652e+15,1,-1,0,-2,-2,-2,-5,-2
1.5910120166652e+15,1,1,-2,-1,-1,-1,1,4
1.59101201667209e+15,-1,-0,-2,-2,-1,-1,0,3
1.59101201667209e+15,-2,-2,-5,-2,-2,-2,-1,1
1.59101201668813e+15,-2,1,0,-1,-1,-1,1,1
1.59101201668813e+15,-2,-2,-1,-2,-2,-2,-3,-4
1.59101201669009e+15,0,-1,-1,-1,0,0,0,-2
1.59101201669009e+15,-2,-2,0,-1,-1,-1,-3,-4
1.59101201670999e+15,-3,-2,-2,-1,-2,-2,-5,-5
1.59101201670999e+15,0,-0,0,-3,-1,-1,1,0
1.59101201671194e+15,-1,-0,-2,-1,0,0,0,-2
1.59101201671194e+15,-1,-2,-1,-1,-2,-2,-5,-3
1.59101201672491e+15,0,-0,0,1,1,1,-2,-5
1.59101201672491e+15,-2,-0,-3,-1,-2,-2,1,6
1.59101201673289e+15,-4,-1,-2,-1,0,0,-2,-5
1.59101201673289e+15,-1,-1,-3,-1,-4,-4,-2,1
1.59101201674788e+15,-1,-2,-1,-3,-4,-4,-1,-1
1.59101201674788e+15,0,-0,-1,0,0,0,-1,-1
1.59101201674984e+15,0,-0,-1,-3,-1,-1,0,0
1.59101201674984e+15,-1,-1,-2,-1,-2,-2,-3,-1
1.59101201677084e+15,-3,-2,-2,-2,0,0,-3,-5
1.59101201677084e+15,-3,-1,-2,-2,-2,-2,-1,-4
1.59101201677178e+15,1,-0,1,-1,-2,-2,-1,-1
1.59101201677178e+15,1,1,0,0,1,1,1,0
1.59101201678499e+15,0,-1,-2,0,-1,-1,-2,3
1.59101201678499e+15,0,-1,-1,-2,-2,-2,-2,-4
1.59101201679892e+15,-1,-0,-1,-1,1,1,-1,2
1.59101201679892e+15,0,-0,1,-3,-2,-2,-1,-2
1.59101201681579e+15,-2,-1,0,-2,0,0,-2,-2
1.59101201681579e+15,-1,-1,-2,-1,-1,-1,-3,-2
1.59101201682188e+15,-2,-1,-3,1,-2,-2,-1,3
1.59101201682188e+15,1,2,0,-1,0,0,1,3
1.59101201683082e+15,-1,-1,-3,0,-1,-1,-1,-2
1.59101201683082e+15,0,-0,0,-2,-1,-1,0,0
1.59101201683163e+15,-1,-2,-1,-1,-2,-2,-2,-5
1.59101201683163e+15,-2,-1,-2,-2,-1,-1,-4,-4
1.59101201684459e+15,1,-0,-2,-3,-2,-2,1,0
1.59101201684459e+15,-4,-1,-1,-1,1,1,0,-3
1.59101201685157e+15,0,-1,-3,-2,-1,-1,-2,-1
1.59101201685157e+15,0,-0,-2,-1,-1,-1,0,-2
1.59101201686754e+15,0,-0,-2,0,-1,-1,-1,1
1.59101201686754e+15,-2,-2,-2,0,-3,-3,-4,-2
1.5910120168755e+15,1,-0,0,0,1,1,2,0
1.5910120168755e+15,-2,-0,-1,0,0,0,0,-3
1.59101201689074e+15,-3,-2,-1,-1,-1,-1,-2,-3
1.59101201689074e+15,-2,-1,-1,0,-1,-1,0,-1
1.5910120168925e+15,-1,-2,0,-2,0,0,-6,-5
1.5910120168925e+15,0,-0,-1,-1,0,0,0,-3
1.59101201691251e+15,1,3,2,-3,2,2,8,8
1.59101201691251e+15,1,2,-1,-2,1,1,3,6
1.5910120169144e+15,-1,-1,0,0,-2,-2,-1,-4
1.5910120169144e+15,0,-0,0,0,-1,-1,-2,-3
1.59101201692839e+15,-1,-0,0,1,-1,-1,-1,-2
1.59101201692839e+15,0,-1,-2,0,-1,-1,-3,-3
1.59101201692936e+15,-1,-0,-1,-2,-2,-2,1,1
1.59101201692936e+15,-2,-1,0,-1,-4,-4,-2,0
1.59101201696629e+15,-2,-1,-3,-2,-3,-3,-2,-1
1.59101201696629e+15,0,-1,-1,-1,-1,-1,-3,-3
1.59101201696726e+15,-1,-1,-2,-2,0,0,-2,-1
1.59101201696726e+15,-1,-1,-2,-2,-1,-1,-2,1
1.59101201696826e+15,0,-1,-2,-3,0,0,-1,-2
1.59101201696826e+15,-2,-1,-4,1,-2,-2,-3,-4
1.59101201697325e+15,1,1,0,1,-1,-1,1,1
1.59101201697325e+15,0,-1,-2,-2,0,0,-1,-3
1.59101201698825e+15,-2,-2,-1,-2,-3,-3,-4,-7
1.59101201698825e+15,-1,-1,0,-2,-3,-3,-3,-5
1.59101201699419e+15,-1,3,1,0,1,1,6,10
1.59101201699419e+15,1,-0,0,-1,-3,-3,-3,-1
1.59101201701014e+15,-1,-0,-1,-1,0,0,0,-1
1.59101201701014e+15,-3,-2,-1,-2,0,0,-3,-6
1.59101201701214e+15,-2,-2,-1,-1,-2,-2,-3,-5
1.59101201701214e+15,-1,-1,-1,-1,-2,-2,-1,-1
1.59101201702411e+15,-2,-1,-1,0,-3,-3,-2,-3
1.59101201702411e+15,-2,-1,1,-2,0,0,-2,-2
1.59101201703309e+15,-1,-1,-2,-1,-1,-1,0,-1
1.59101201703309e+15,1,2,0,-1,2,2,2,3
1.59101201704722e+15,2,-1,-2,-4,-1,-1,0,-3
1.59101201704722e+15,0,-1,-1,-2,-3,-3,0,2
1.59101201705602e+15,-1,-1,-1,-1,-1,-1,-3,-1
1.59101201705602e+15,-3,-1,-1,0,1,1,-2,-6
1.59101201707119e+15,-4,-2,-2,-2,0,0,-4,-3
1.59101201707119e+15,0,-1,-2,-1,0,0,0,-3
1.59101201707701e+15,-1,1,-1,0,0,0,2,5
1.59101201707701e+15,-2,-0,-2,-1,0,0,2,3
1.59101201708396e+15,-2,-0,0,-1,-2,-2,0,-1
1.59101201708396e+15,-1,-1,-2,-1,-2,-2,-2,-2
1.59101201710091e+15,-1,-1,0,-2,-2,-2,-3,-4
1.59101201710091e+15,0,-1,-2,-2,-1,-1,0,-2
1.59101201710792e+15,-2,-2,-2,-2,0,0,-5,-6
1.59101201710792e+15,-2,-0,-3,-3,-2,-2,3,8
1.59101201710999e+15,-2,-0,-1,-1,0,0,-1,0
1.59101201710999e+15,-2,-1,-2,-2,-1,-1,-2,1
1.59101201713095e+15,-1,-1,-2,-1,0,0,1,-2
1.59101201713095e+15,-2,-2,-1,-2,-3,-3,-1,-3
1.59101201713185e+15,-2,-2,-3,-3,-1,-1,-3,-3
1.59101201713185e+15,-2,-1,0,0,-2,-2,-4,-2
1.59101201714379e+15,-2,-2,-2,-2,-3,-3,-5,-3
1.59101201714379e+15,2,2,1,0,1,1,2,5
1.59101201715279e+15,-2,-1,-2,-2,-2,-2,0,-2
1.59101201715279e+15,-3,-1,-1,-1,-3,-3,-1,-2
1.59101201716778e+15,-1,-0,-2,1,-2,-2,-1,-2
1.59101201716778e+15,-2,-1,0,0,-2,-2,-2,-4
1.59101201716972e+15,0,-0,1,0,0,0,1,-2
1.59101201716972e+15,-1,-1,-2,-3,-1,-1,-3,-2
1.59101201719071e+15,1,1,-1,-1,-1,-1,1,5
1.59101201719071e+15,0,-0,-1,-1,0,0,-2,0
1.59101201719166e+15,1,-1,-3,-2,-1,-1,-6,-3
1.59101201719166e+15,-2,-0,-2,-2,1,1,-2,-2
1.59101201720363e+15,-2,1,-1,0,-1,-1,3,7
1.59101201720363e+15,-2,-0,-1,-2,0,0,-1,-2
1.59101201722158e+15,-2,-0,-1,0,0,0,0,-2
1.59101201722158e+15,-1,-2,-1,-2,-4,-4,-6,-3
1.59101201722757e+15,0,-0,-1,1,0,0,-3,-4
1.59101201722757e+15,1,1,-1,-2,0,0,2,4
1.59101201722956e+15,0,-1,-2,-2,-2,-2,0,-1
1.59101201722956e+15,0,-0,0,0,-1,-1,-2,-2
1.59101201725053e+15,-2,-2,-1,-2,-2,-2,-1,-6
1.59101201725053e+15,0,-1,-2,-1,-1,-1,0,-3
1.5910120172525e+15,-3,-1,-3,0,-2,-2,-4,-2
1.5910120172525e+15,-1,1,0,0,1,1,2,4
1.59101201726447e+15,0,-1,-2,0,-2,-2,0,-1
1.59101201726447e+15,-1,-1,0,0,0,0,-2,-1
1.59101201727344e+15,0,-0,0,-1,1,1,-1,-2
1.59101201727344e+15,-1,-1,0,0,-1,-1,-2,-2
1.59101201728945e+15,-1,-0,1,-2,-1,-1,1,1
1.59101201728945e+15,-2,-1,-2,-1,-1,-1,-2,-2
1.59101201729439e+15,-1,-2,-1,-3,-2,-2,-5,-8
1.59101201729439e+15,2,2,0,-1,-1,-1,3,7
1.5910120173104e+15,0,-0,-1,-1,0,0,2,-2
1.5910120173104e+15,0,-0,-1,0,-3,-3,1,-1
1.59101201731732e+15,0,-0,0,0,-2,-2,-1,-2
1.59101201731732e+15,0,-1,-3,-1,-2,-2,0,-4
1.59101201733328e+15,-1,-1,-1,-1,-3,-3,-3,-2
1.59101201733328e+15,1,-0,-1,-1,-1,-1,2,-1
1.59101201733428e+15,0,-1,-1,0,-1,-1,-3,3
1.59101201733428e+15,-1,-0,-2,-1,-2,-2,-2,0
1.59101201734824e+15,-1,-1,0,0,0,0,-3,-2
1.59101201734824e+15,-2,-2,-1,-1,-3,-3,-3,-4
1.59101201734924e+15,1,-0,-2,-2,-1,-1,1,2
1.59101201734924e+15,-1,-1,-1,-1,-2,-2,-1,-1
1.59101201737025e+15,-1,-0,-2,-2,-1,-1,-1,2
1.59101201737025e+15,-3,-1,-1,-3,-2,-2,0,1
1.59101201737218e+15,-1,-0,-1,0,0,0,2,1
1.59101201737218e+15,-2,-0,-1,-2,-1,-1,-2,-5
1.59101201739255e+15,-2,-2,-2,-1,-1,-1,-2,-4
1.59101201739255e+15,-1,-1,-1,-3,0,0,-2,-1
1.59101201739447e+15,-1,-0,-2,-3,-2,-2,3,0
1.59101201739447e+15,-2,-1,-1,1,-2,-2,-6,-6
1.59101201740744e+15,-3,1,-1,-1,-1,-1,2,6
1.59101201740744e+15,0,-1,-2,0,-2,-2,-2,-3
1.59101201741442e+15,1,-0,-1,-1,-2,-2,1,1
1.59101201741442e+15,2,-0,-2,-4,0,0,0,2
1.59101201743063e+15,0,-1,-1,0,0,0,-5,-6
1.59101201743063e+15,-1,-1,-1,-1,-3,-3,0,-2
1.59101201743237e+15,-2,-2,-1,0,-2,-2,-2,-3
1.59101201743237e+15,-1,-1,-1,-1,-1,-1,-3,-2
1.59101201746931e+15,0,-0,-1,-1,0,0,3,1
1.59101201746931e+15,0,1,0,-1,0,0,-1,3
1.59101201747127e+15,-1,-0,-1,-2,0,0,-1,1
1.59101201747127e+15,-3,-1,-1,-3,-2,-2,-1,0
1.59101201747127e+15,0,-0,-2,-2,-2,-2,-1,-1
1.59101201747127e+15,0,-0,1,0,0,0,-1,0
1.59101201747526e+15,-1,-0,0,-1,-1,-1,-1,-1
1.59101201747526e+15,-1,-0,-1,-1,-1,-1,1,1
1.59101201749034e+15,-2,-0,1,1,-2,-2,-2,-2
1.59101201749034e+15,2,-2,-2,-2,-2,-2,-3,-4
1.59101201749221e+15,-1,-2,-3,-2,-2,-2,-2,-3
1.59101201749221e+15,-2,-0,-1,0,-1,-1,-1,-1
1.59101201751316e+15,-2,-1,-2,-1,-1,-1,1,-2
1.59101201751316e+15,-2,-1,0,0,0,0,-1,-2
1.59101201751515e+15,1,-0,1,-1,1,1,-2,-4
1.59101201751515e+15,-3,-1,0,-1,-1,-1,-4,-1
1.59101201752714e+15,2,2,0,-2,0,0,4,7
1.59101201752714e+15,-2,-0,-2,-2,1,1,1,0
1.59101201753417e+15,-1,-1,-1,-2,-2,-2,-3,-3
1.59101201753417e+15,-2,-1,-2,-2,-1,-1,-1,-2
1.59101201755012e+15,-4,-1,-3,-1,0,0,-2,-2
1.59101201755012e+15,-2,-1,-1,-1,-2,-2,-3,-3
1.59101201755205e+15,-1,1,0,1,-2,-2,2,2
1.59101201755205e+15,0,-0,-4,-2,0,0,0,-1
1.59101201757299e+15,-1,-1,0,-3,-2,-2,-3,-2
1.59101201757299e+15,-3,-3,-3,-2,-2,-2,-4,-6
1.59101201757499e+15,0,1,1,0,-1,-1,-1,3
1.59101201757499e+15,1,-0,-2,0,-1,-1,-2,1
1.591012017587e+15,-1,1,0,0,1,1,5,2
1.591012017587e+15,-1,-2,-2,-1,-4,-4,-5,-2
1.59101201759394e+15,-2,-0,-3,-2,-2,-2,0,3
1.59101201759394e+15,-1,-1,0,-1,-1,-1,0,-1
1.59101201761089e+15,0,-0,0,-2,-1,-1,-2,-1
1.59101201761089e+15,0,1,-2,-1,0,0,4,4
1.59101201761189e+15,-1,-0,1,-1,-1,-1,-2,-2
1.59101201761189e+15,-2,-1,-2,-3,-2,-2,2,-1
1.59101201763287e+15,-1,-1,-1,-3,-1,-1,-3,-2
1.59101201763287e+15,0,-0,0,-1,-2,-2,-1,0
1.59101201763483e+15,-1,-1,-2,-2,-1,-1,-3,-1
1.59101201763483e+15,0,-1,-1,-1,-1,-1,0,-1
1.59101201764779e+15,1,-2,-1,-3,-2,-2,-1,-2
1.59101201764779e+15,1,-0,0,-1,0,0,0,0
1.5910120176561e+15,-3,-1,-1,-1,-2,-2,-2,-2
1.5910120176561e+15,0,-0,1,0,-1,-1,1,-3
1.59101201767112e+15,-2,-2,-1,0,-1,-1,-4,-9
1.59101201767112e+15,1,1,-2,1,1,1,2,1
1.59101201767207e+15,-4,-3,-2,-2,-1,-1,-4,-8
1.59101201767207e+15,0,2,0,1,1,1,0,6
1.59101201769222e+15,-1,-0,0,-1,-1,-1,-1,2
1.59101201769222e+15,-2,-1,-1,0,-1,-1,-2,-4
1.59101201770099e+15,-1,-1,0,-1,0,0,-2,-2
1.59101201770099e+15,-1,-2,-2,-2,-3,-3,-1,-3
1.59101201770802e+15,-2,-2,-1,-1,-2,-2,-3,-5
1.59101201770802e+15,-1,2,0,1,-1,-1,4,6
1.59101201771595e+15,1,-0,-1,-2,0,0,1,2
1.59101201771595e+15,-2,-2,-1,-2,-1,-1,-3,-3
1.59101201773091e+15,0,-1,-1,-1,0,0,-2,-1
1.59101201773091e+15,-3,-2,-2,-2,-3,-3,-3,-3
1.59101201773191e+15,0,-0,0,-1,0,0,-1,-3
1.59101201773191e+15,-2,-0,-2,-2,-1,-1,0,3
1.59101201775185e+15,-1,-1,0,0,0,0,-2,-3
1.59101201775185e+15,-1,-2,-1,-2,-1,-1,-5,-4
1.59101201776083e+15,-2,-0,-3,-3,-1,-1,2,2
1.59101201776083e+15,-3,-2,-2,0,-1,-1,-4,-4
1.59101201776685e+15,-1,-0,-3,0,-1,-1,1,1
1.59101201776685e+15,0,-1,-2,-1,1,1,-1,-3
1.59101201777384e+15,-1,-1,-3,-1,-1,-1,1,-2
1.59101201777384e+15,-1,-1,-3,0,1,1,-2,-2
1.5910120177908e+15,-1,1,-1,-1,-1,-1,3,4
1.5910120177908e+15,-2,-0,1,0,-2,-2,-2,-4
1.59101201779177e+15,-2,-0,1,-1,-2,-2,1,2
1.59101201779177e+15,-3,-3,-1,-1,-1,-1,-5,-9
1.59101201781307e+15,0,-0,0,-1,-1,-1,4,5
1.59101201781307e+15,-3,-0,0,-2,1,1,1,1
1.59101201781503e+15,-2,-1,-2,0,0,0,-3,-1
1.59101201781503e+15,-1,-1,-1,-1,-2,-2,1,0
1.59101201782703e+15,0,-3,-3,-4,-2,-2,-5,-3
1.59101201782703e+15,-1,-0,-1,0,0,0,0,-2
1.59101201783598e+15,0,-0,-2,1,-1,-1,-1,-1
1.59101201783598e+15,-2,-0,0,-2,-1,-1,-2,-2
1.59101201785094e+15,-2,-0,-2,-1,-2,-2,-1,0
1.59101201785094e+15,0,-0,-1,-1,-1,-1,0,1
1.59101201785193e+15,0,-1,0,-2,-1,-1,-2,0
1.59101201785193e+15,-1,-2,-1,-1,-3,-3,-4,-3
1.59101201787391e+15,-2,-0,0,1,0,0,-2,-4
1.59101201787391e+15,1,-0,-2,1,-1,-1,-2,0
1.59101201787487e+15,0,-0,-2,0,-2,-2,1,-1
1.59101201787487e+15,-2,-1,-1,-3,-2,-2,0,0
1.59101201788684e+15,-2,-1,1,-1,-1,-1,-5,-8
1.59101201788684e+15,-1,1,-2,-1,-1,-1,3,7
1.59101201790284e+15,-2,-1,-4,-1,0,0,-2,-5
1.59101201790284e+15,0,-2,-3,-4,-1,-1,0,-3
1.59101201791078e+15,-2,-1,-4,-2,-1,-1,2,1
1.59101201791078e+15,-1,-1,0,-2,0,0,-2,-3
1.59101201791177e+15,-1,-1,-1,1,-2,-2,-3,2
1.59101201791177e+15,-2,-0,0,0,-1,-1,1,0
1.59101201793372e+15,2,-1,0,-1,-1,-1,-2,-4
1.59101201793372e+15,-1,-0,-1,-2,0,0,0,0
1.59101201793571e+15,0,-0,0,-2,-1,-1,1,0
1.59101201793571e+15,-1,-0,1,1,-2,-2,-4,0
1.59101201794672e+15,-1,-2,-2,-1,-4,-4,-5,-3
1.59101201794672e+15,-2,-0,0,-2,0,0,1,1
1.59101201796179e+15,0,-1,-1,-1,-1,-1,-1,-1
1.59101201796179e+15,-3,-1,-2,-1,0,0,-1,-3
1.59101201797072e+15,-1,1,-2,-2,1,1,3,5
1.59101201797072e+15,-1,-3,-1,0,-4,-4,-5,-7
1.59101201797171e+15,-3,-0,-2,-1,-3,-3,2,4
1.59101201797171e+15,0,-0,-2,-2,-1,-1,1,3
1.59101201799309e+15,0,-0,1,0,-1,-1,-2,-1
1.59101201799309e+15,0,-1,-1,-1,0,0,-2,-5
1.59101201799505e+15,0,1,0,-3,1,1,1,0
1.59101201799505e+15,-4,-2,-2,-1,-3,-3,-2,-2
1.59101201800699e+15,-1,-0,1,0,-1,-1,0,-2
1.59101201800699e+15,0,1,-1,0,-1,-1,1,4
1.59101201801598e+15,-2,-2,-1,0,-1,-1,-4,-5
1.59101201801598e+15,-1,-0,-2,-1,0,0,1,-1
1.59101201802995e+15,-3,-2,-4,-1,-2,-2,-6,-5
1.59101201802995e+15,-3,-1,0,0,-1,-1,-1,-4
1.59101201803194e+15,1,-0,-1,-1,-2,-2,0,-1
1.59101201803194e+15,0,-0,-2,-2,-2,-2,2,2
1.59101201805294e+15,-2,-1,-3,0,-1,-1,-1,-1
1.59101201805294e+15,0,-0,-2,-1,-1,-1,-1,1
1.59101201806914e+15,1,-1,0,-2,-2,-2,-3,-3
1.59101201806914e+15,-1,-1,-2,-2,-1,-1,0,-1
1.59101201806914e+15,-3,-0,0,-1,-2,-2,3,3
1.59101201806914e+15,2,-1,-2,-1,-1,-1,-6,-5
1.59101201807612e+15,-2,-0,-2,-1,2,2,2,3
1.59101201807612e+15,1,-1,0,-1,-3,-3,-2,0
1.5910120180911e+15,-2,-0,0,-1,-1,-1,1,1
1.5910120180911e+15,-1,-1,-2,-2,-2,-2,-2,0
1.59101201809208e+15,-2,-1,-1,-1,-1,-1,-1,-3
1.59101201809208e+15,-2,-1,0,0,0,0,-2,-6
1.59101201811305e+15,0,-1,-2,-2,-2,-2,-1,1
1.59101201811305e+15,0,-1,-2,0,-1,-1,-1,-5
1.59101201811905e+15,-1,-1,-1,-1,-1,-1,-1,1
1.59101201811905e+15,-1,-1,-1,-2,-1,-1,0,0
1.59101201812703e+15,-2,-0,-1,-3,0,0,-1,-1
1.59101201812703e+15,-1,-1,-1,-1,-1,-1,-2,-4
1.59101201813596e+15,-1,-1,-2,-1,-3,-3,1,0
1.59101201813596e+15,-1,-1,-2,1,-2,-2,-2,-4
1.59101201815115e+15,1,-1,-1,1,-1,-1,-1,-1
1.59101201815115e+15,-1,1,0,0,-1,-1,1,2
1.59101201815291e+15,-4,-3,-2,1,-2,-2,-6,-10
1.59101201815291e+15,0,2,-1,1,1,1,3,6
1.59101201817314e+15,-1,-1,-2,-2,-2,-2,2,-1
1.59101201817314e+15,0,-0,-1,-1,-2,-2,-1,0
1.59101201817908e+15,-1,-1,-2,-3,-2,-2,-1,-1
1.59101201817908e+15,1,-1,-1,-2,-1,-1,-6,-1
1.59101201818713e+15,-1,-0,0,-1,1,1,-1,0
1.59101201818713e+15,-1,-0,-1,0,-1,-1,-3,-2
1.59101201819504e+15,0,-1,0,-2,-3,-3,-2,-1
1.59101201819504e+15,-2,-1,-3,-2,-3,-3,0,-1
1.59101201821798e+15,-2,-2,-3,-1,0,0,-3,-3
1.59101201821798e+15,-3,-1,0,-2,-2,-2,0,-1
1.59101201822001e+15,-1,1,-1,0,0,0,1,1
1.59101201822001e+15,-1,-0,-2,-2,-2,-2,-1,1
1.59101201823263e+15,0,-2,-3,-3,-2,-2,-3,-3
1.59101201823263e+15,0,-0,0,0,2,2,0,2
1.59101201823444e+15,-2,-2,-3,0,-1,-1,-4,-4
1.59101201823444e+15,0,-2,0,-2,-1,-1,-2,-4
1.5910120182466e+15,-2,-1,-3,-1,-3,-3,1,-2
1.5910120182466e+15,-1,-1,-1,-1,-1,-1,-2,1
1.59101201825544e+15,0,-1,-1,-3,-1,-1,-4,-2
1.59101201825544e+15,0,1,-1,0,-2,-2,2,4
1.59101201827057e+15,0,-1,-1,-1,-1,-1,-2,-4
1.59101201827057e+15,0,-2,-2,-1,-2,-2,-2,-7
1.59101201827228e+15,1,1,0,0,-1,-1,4,3
1.59101201827228e+15,-3,-2,-2,-2,-2,-2,-4,-6
1.59101201829319e+15,-2,-0,2,0,0,0,0,0
1.59101201829319e+15,1,-1,-3,-1,-3,-3,-2,-2
1.59101201829415e+15,-4,-1,-1,-2,0,0,-3,1
1.59101201829415e+15,-1,-0,0,-1,0,0,0,0
1.59101201831634e+15,-2,-0,-1,0,-1,-1,0,0
1.59101201831634e+15,-1,1,-1,-1,-1,-1,3,4
1.59101201833031e+15,-1,-0,-1,-1,-1,-1,0,-1
1.59101201833031e+15,-1,-1,0,-2,-1,-1,-4,0
1.59101201833105e+15,1,-1,-3,0,0,0,-5,-3
1.59101201833105e+15,0,-0,-3,-1,0,0,-1,1
1.59101201833903e+15,0,-0,-1,-2,-1,-1,0,1
1.59101201833903e+15,-2,-0,0,0,-1,-1,1,-3
1.59101201835299e+15,-3,-1,1,1,-1,-1,-1,-2
1.59101201835299e+15,0,-0,-3,-1,-2,-2,1,1
1.591012018355e+15,0,-0,0,-1,1,1,-3,-4
1.591012018355e+15,-2,-4,-2,-3,-4,-4,-8,-10
1.59101201837595e+15,-2,1,-2,-3,0,0,3,7
1.59101201837595e+15,0,-0,-1,-3,-2,-2,1,0
1.59101201837692e+15,-1,-0,-1,-1,-1,-1,-1,2
1.59101201837692e+15,2,-0,-2,-2,1,1,0,-1
1.5910120183969e+15,-4,-1,1,0,-1,-1,0,-3
1.5910120183969e+15,-2,-0,-2,0,0,0,0,-2
1.59101201840584e+15,0,-1,-2,-3,-1,-1,1,-2
1.59101201840584e+15,-2,-0,-2,1,-1,-1,1,-3
1.59101201841289e+15,1,-1,0,-1,-3,-3,-3,-4
1.59101201841289e+15,-2,1,1,-1,0,0,-1,1
1.59101201841482e+15,-2,-1,-1,1,0,0,-3,-2
1.59101201841482e+15,-2,-0,-3,0,-1,-1,0,3
1.59101201843585e+15,0,-0,-1,1,-1,-1,0,0
1.59101201843585e+15,-1,-1,-1,-2,-3,-3,-1,1
1.59101201843676e+15,0,-2,-3,-3,-3,-3,-5,-3
1.59101201843676e+15,0,-0,0,-1,-1,-1,2,3
1.59101201845795e+15,1,-1,-1,-3,0,0,0,-1
1.59101201845795e+15,-4,-3,0,0,-2,-2,-5,-5
1.59101201845971e+15,0,2,0,-2,0,0,5,5
1.59101201845971e+15,-1,-2,-1,-1,-1,-1,-6,-5
1.59101201847292e+15,1,-1,-2,-3,-1,-1,-2,-2
1.59101201847292e+15,-1,-0,-1,-1,-1,-1,-2,-1
1.59101201847467e+15,-1,-2,-1,0,-1,-1,-4,-4
1.59101201847467e+15,-2,-2,-2,-2,-2,-2,-2,-2
1.59101201849565e+15,0,-1,-2,-1,0,0,-4,-2
1.59101201849565e+15,-2,2,-1,0,0,0,4,7
1.59101201849661e+15,-2,-0,-1,-1,-1,-1,1,1
1.59101201849661e+15,1,-0,0,-3,-1,-1,0,-1
1.59101201850957e+15,-1,-1,-1,-2,-1,-1,-2,-2
1.59101201850957e+15,2,-1,-1,-2,-1,-1,-3,-5
1.59101201851655e+15,-1,-0,-1,-3,0,0,0,1
1.59101201851655e+15,2,1,0,-1,0,0,2,2
1.59101201853257e+15,-4,-1,-1,0,-1,-1,-2,-2
1.59101201853257e+15,-2,-1,0,-1,-1,-1,-3,-6
1.59101201854847e+15,-1,1,1,0,-3,-3,2,5
1.59101201854847e+15,-1,2,0,0,1,1,4,2
1.59101201855551e+15,0,-0,1,1,0,0,-1,-1
1.59101201855551e+15,-1,-0,-1,-2,1,1,0,2
1.59101201855744e+15,-2,-2,-2,0,-1,-1,-3,-6
1.59101201855744e+15,-3,-2,0,-1,-2,-2,-3,-4
1.59101201856949e+15,-1,2,-1,-1,1,1,4,1
1.59101201856949e+15,-2,-2,-3,-2,-1,-1,-2,-4
1.5910120185764e+15,1,-1,-1,-2,-1,-1,-3,0
1.5910120185764e+15,-4,-2,-2,-2,-1,-1,-2,-4
1.59101201859338e+15,2,-0,-1,-1,-1,-1,-1,-2
1.59101201859338e+15,-1,-0,-2,0,-1,-1,1,1
1.59101201859434e+15,0,-0,-2,-3,-1,-1,-2,1
1.59101201859434e+15,-1,1,-1,-1,-1,-1,1,1
1.59101201861557e+15,-1,-1,-3,-4,-2,-2,-2,-2
1.59101201861557e+15,-3,-1,0,-2,-1,-1,-3,-2
1.59101201861728e+15,-1,-1,-1,0,-4,-4,-3,-1
1.59101201861728e+15,-1,-0,0,-3,0,0,2,3
1.59101201863024e+15,-1,-2,2,-2,-2,-2,-4,-6
1.59101201863024e+15,0,1,-2,-2,-1,-1,6,8
1.59101201863636e+15,0,1,-1,0,0,0,0,1
1.59101201863636e+15,-2,-1,-2,-2,-3,-3,-2,-2
1.59101201866019e+15,-5,-0,0,1,1,1,-1,-1
1.59101201866019e+15,-3,-1,0,-1,0,0,-4,-3
1.59101201866218e+15,-1,-1,-1,-3,0,0,-2,-3
1.59101201866218e+15,-1,-1,-1,-1,0,0,-1,-2
1.59101201867588e+15,1,1,-1,-2,-2,-2,4,4
1.59101201867588e+15,-1,-1,0,0,-1,-1,-3,-2
1.59101201867786e+15,-3,-0,-2,1,-1,-1,1,1
1.59101201867786e+15,0,-1,-2,-1,-3,-3,-3,-2
1.59101201869002e+15,-2,-0,-1,0,-1,-1,0,-2
1.59101201869002e+15,-2,-1,0,-1,-3,-3,-2,-2
1.59101201869681e+15,-1,-1,-2,-2,-2,-2,0,-2
1.59101201869681e+15,-2,-1,-3,-1,0,0,-2,-4
1.59101201871273e+15,-2,1,-2,-1,-1,-1,1,6
1.59101201871273e+15,-1,-1,-2,-2,0,0,-3,-2
1.59101201871473e+15,0,-1,-1,0,-1,-1,-3,-2
1.59101201871473e+15,0,1,-1,-2,-1,-1,1,4
1.5910120187359e+15,-5,-1,-2,-1,-1,-1,-3,-3
1.5910120187359e+15,-1,-2,-1,0,-1,-1,-3,-5
1.59101201873667e+15,-1,-1,-1,-2,-3,-3,-1,0
1.59101201873667e+15,-2,-1,-2,-2,-1,-1,0,-4
1.59101201874963e+15,2,-0,-1,-1,-2,-2,-1,-3
1.59101201874963e+15,0,-1,-1,-2,-2,-2,-3,-3
1.59101201875719e+15,-2,-2,-2,-3,0,0,-1,-3
1.59101201875719e+15,-1,1,0,1,1,1,2,3
1.59101201877297e+15,0,1,0,0,0,0,2,2
1.59101201877297e+15,-1,-1,-2,-1,-2,-2,-3,-3
1.59101201877495e+15,0,-0,-1,-2,0,0,-1,-2
1.59101201877495e+15,1,-0,-1,-1,0,0,-1,-2
1.5910120187959e+15,1,-3,-3,-2,-3,-3,-7,-4
1.5910120187959e+15,-2,1,-1,-1,-1,-1,2,5
1.59101201879689e+15,0,-2,-2,-3,-1,-1,-5,-3
1.59101201879689e+15,0,2,0,-1,2,2,4,6
1.59101201880985e+15,0,-2,-2,-1,-1,-1,-2,-3
1.59101201880985e+15,0,-0,-2,0,-2,-2,1,0
1.59101201881784e+15,-3,-2,-1,0,-3,-3,-3,-6
1.59101201881784e+15,3,-1,-1,-2,-2,-2,-4,0
1.59101201883292e+15,-1,-0,-1,-2,0,0,0,-1
1.59101201883292e+15,-2,-2,-2,-3,0,0,0,-2
1.59101201883479e+15,-1,2,-1,-1,1,1,1,2
1.59101201883479e+15,-2,-2,0,-2,-1,-1,-5,-5
1.59101201885574e+15,0,-0,0,-1,-2,-2,-1,1
1.59101201885574e+15,0,1,1,-1,2,2,2,3
1.59101201885673e+15,0,-0,-1,-1,0,0,-1,1
1.59101201885673e+15,-3,-1,0,-2,-4,-4,-2,-3
1.59101201886872e+15,-1,-1,-1,-1,-2,-2,-3,1
1.59101201886872e+15,-1,-1,0,-2,-1,-1,-1,-2
1.59101201887767e+15,-2,-0,-2,0,0,0,1,0
1.59101201887767e+15,-2,-1,1,1,0,0,-3,-6
1.59101201889277e+15,0,1,-1,1,-1,-1,2,-1
1.59101201889277e+15,0,-1,-1,-2,-2,-2,-2,-1
1.59101201889463e+15,-2,-1,-2,-3,-1,-1,1,0
1.59101201889463e+15,-1,-1,-2,0,-2,-2,-5,-2
1.59101201891571e+15,-2,-0,-2,1,-1,-1,1,0
1.59101201891571e+15,-2,-1,-1,0,0,0,-3,-2
1.59101201891657e+15,-1,-0,-1,-1,0,0,-3,-1
1.59101201891657e+15,0,-1,-1,-1,-2,-2,1,-2
1.59101201892958e+15,0,-2,-1,-2,0,0,-1,-4
1.59101201892958e+15,-3,-2,-1,-3,-2,-2,-5,-2
1.59101201893851e+15,0,-0,-1,1,-3,-3,2,1
1.59101201893851e+15,-2,-0,-2,-3,0,0,1,1
1.59101201895255e+15,1,1,0,0,-1,-1,-2,-2
1.59101201895255e+15,0,2,-1,-1,-1,-1,3,7
1.59101201895447e+15,-2,-1,-1,-2,0,0,-3,-3
1.59101201895447e+15,-1,-0,-3,-1,-1,-1,1,1
1.59101201897546e+15,-2,-0,-1,-2,-2,-2,0,-2
1.59101201897546e+15,-3,-1,-2,0,-1,-1,-2,-4
1.59101201897741e+15,-2,-1,-1,-1,0,0,-2,0
1.59101201897741e+15,1,-1,-1,-2,0,0,0,-3
1.59101201898973e+15,-1,-1,-1,-2,-1,-1,-3,-4
1.59101201898973e+15,0,-2,-2,1,-2,-2,-4,-7
1.59101201901481e+15,-1,1,-1,-2,0,0,1,6
1.59101201901481e+15,0,-0,1,0,-1,-1,0,3
1.59101201901481e+15,-1,-0,-1,0,-1,-1,0,-1
1.59101201901481e+15,0,-1,0,-2,-2,-2,-2,-1
1.59101201901658e+15,-2,-3,-3,-1,-1,-1,-4,-7
1.59101201901658e+15,-4,-1,-1,-2,-3,-3,-2,-2
1.59101201903572e+15,1,2,-1,1,0,0,1,3
1.59101201903572e+15,-1,-1,0,-1,-1,-1,-2,-1
1.59101201903752e+15,-1,-1,0,-3,-3,-3,0,-3
1.59101201903752e+15,2,1,0,0,-1,-1,1,2
1.59101201904949e+15,-2,-0,-1,0,1,1,1,-3
1.59101201904949e+15,0,-0,-2,-2,1,1,-1,3
1.59101201905847e+15,-3,-2,0,-2,-2,-2,-1,-3
1.59101201905847e+15,0,-0,-1,-2,-1,-1,0,1
1.59101201907342e+15,-1,-1,1,0,-2,-2,-3,-2
1.59101201907342e+15,-4,-0,-2,-1,0,0,2,3
1.59101201907442e+15,-1,-1,-1,-1,-2,-2,-2,-3
1.59101201907442e+15,-2,-0,-3,0,1,1,-2,-1
1.59101201910335e+15,-1,-1,1,0,-1,-1,-3,-3
1.59101201910335e+15,-1,-1,0,-1,-3,-3,-2,-3
1.59101201910434e+15,-3,-0,0,1,0,0,-1,-3
1.59101201910434e+15,-1,-0,-1,-1,-1,-1,1,4
1.59101201910936e+15,0,-1,-2,-3,-2,-2,-2,-1
1.59101201910936e+15,-1,-2,-1,-2,-3,-3,-2,-3
1.59101201911831e+15,-1,-0,-3,-2,0,0,1,2
1.59101201911831e+15,-1,-1,-1,-1,-2,-2,1,0
1.59101201913331e+15,1,1,0,0,0,0,2,2
1.59101201913331e+15,0,-0,-1,-1,0,0,-1,0
1.59101201913426e+15,0,-1,0,-1,-2,-2,-5,-4
1.59101201913426e+15,-1,-0,0,1,-1,-1,0,0
1.59101201915649e+15,-6,-0,0,-1,0,0,3,3
1.59101201915649e+15,-1,-1,-1,1,-2,-2,-2,-3
1.59101201916219e+15,1,-0,-2,-2,-1,-1,2,4
1.59101201916219e+15,0,-1,-1,-2,-2,-2,-4,-2
1.59101201917817e+15,0,-1,-3,-2,-1,-1,-2,-1
1.59101201917817e+15,-3,-2,-2,-2,-1,-1,-1,-3
1.59101201918413e+15,-2,-1,0,-3,0,0,-2,-3
1.59101201918413e+15,-3,-2,-1,-3,-1,-1,0,-4
1.59101201919314e+15,1,-0,-1,-1,-1,-1,-2,1
1.59101201919314e+15,-3,-1,-2,1,0,0,-3,-1
1.5910120191941e+15,0,-0,-2,-2,-2,-2,0,2
1.5910120191941e+15,-2,-2,-1,-2,-2,-2,-4,-7
1.5910120192161e+15,0,1,-2,-2,0,0,3,4
1.5910120192161e+15,-1,-0,0,0,1,1,-2,-4
1.59101201921705e+15,-2,-0,-2,0,0,0,1,-1
1.59101201921705e+15,-3,-1,-1,-1,-2,-2,-5,-2
1.59101201923818e+15,-2,-0,-2,0,0,0,1,3
1.59101201923818e+15,0,-0,-2,-2,-2,-2,0,0
1.59101201923998e+15,-1,-2,-1,-1,-3,-3,-5,-2
1.59101201923998e+15,0,-0,-1,-2,0,0,2,0
1.59101201925295e+15,2,-0,-1,-2,-2,-2,-2,-2
1.59101201925295e+15,1,-0,0,-1,-2,-2,-1,2
1.59101201925495e+15,-3,-2,-1,-2,-1,-1,-2,-4
1.59101201925495e+15,-3,-1,-2,-2,-2,-2,-2,0
1.59101201927591e+15,1,-1,-1,-2,-2,-2,-5,-1
1.59101201927591e+15,-2,-0,0,-2,-1,-1,1,2
1.59101201927688e+15,-2,-0,-1,-1,0,0,1,-3
1.59101201927688e+15,1,-1,-1,0,-2,-2,-2,-1
1.59101201929804e+15,-1,-0,-1,0,-1,-1,0,-3
1.59101201929804e+15,-2,-0,-2,-1,-4,-4,1,0
1.59101201929982e+15,-2,-0,-1,-2,1,1,-1,-2
1.59101201929982e+15,-3,-1,-1,-4,-2,-2,-1,0
1.5910120193139e+15,-1,-2,0,-1,0,0,-5,-7
1.5910120193139e+15,0,1,-2,-1,-1,-1,2,4
1.59101201931893e+15,0,-1,0,-2,-4,-4,0,0
1.59101201931893e+15,-2,-1,-1,-2,-1,-1,-4,-5
1.59101201933579e+15,-1,-1,-1,-3,-3,-3,-1,1
1.59101201933579e+15,0,-1,-2,-1,-2,-2,-1,-1
1.59101201934194e+15,-2,-0,0,-1,0,0,-1,0
1.59101201934194e+15,0,1,-3,0,1,1,1,2
1.59101201935766e+15,0,-0,0,0,-1,-1,-1,0
1.59101201935766e+15,-1,-0,-1,-2,1,1,-1,0
1.59101201935966e+15,-2,-1,0,0,-2,-2,-2,-2
1.59101201935966e+15,-1,1,-1,1,0,0,2,-1
1.59101201937379e+15,-3,-1,-2,-1,-1,-1,1,-2
1.59101201937379e+15,-3,-1,-1,-1,-1,-1,-3,-1
1.59101201937972e+15,-1,-2,-3,-4,-2,-2,-1,1
1.59101201937972e+15,-2,-2,-2,-2,-2,-2,-2,-3
1.59101201939656e+15,-1,-1,0,-1,-4,-4,0,-1
1.59101201939656e+15,0,-2,-1,-2,-1,-1,-3,-7
1.59101201940173e+15,0,-0,-1,-2,-2,-2,0,0
1.59101201940173e+15,0,-1,-1,-1,-1,-1,-3,-1
1.59101201943447e+15,-1,-0,-1,0,0,0,-1,0
1.59101201943447e+15,0,1,1,-1,-1,-1,0,5
1.59101201943546e+15,1,-0,-1,-3,0,0,0,1
1.59101201943546e+15,-2,-1,1,-1,-2,-2,0,-4
1.59101201943645e+15,0,-0,1,0,0,0,-2,-2
1.59101201943645e+15,-1,-0,-1,-2,-2,-2,0,0
1.59101201944051e+15,-2,-0,0,0,-1,-1,-2,-1
1.59101201944051e+15,-2,-0,0,-1,-2,-2,0,-2
1.59101201945544e+15,-1,-1,-2,-1,-1,-1,-4,-1
1.59101201945544e+15,-1,-1,0,1,-1,-1,-2,-4
1.5910120194574e+15,2,1,0,1,0,0,2,1
1.5910120194574e+15,-2,-3,-3,-2,-3,-3,-6,-5
1.59101201947837e+15,2,1,0,-2,-3,-3,0,2
1.59101201947837e+15,0,1,-1,-2,2,2,2,1
1.59101201947934e+15,-1,-1,-1,-2,0,0,-3,-4
1.59101201947934e+15,-2,-1,-3,-1,-3,-3,2,0
1.59101201949235e+15,-1,-1,0,-2,0,0,-2,-2
1.59101201949235e+15,0,-1,-2,-3,-2,-2,0,-1
1.59101201949933e+15,-1,-3,-3,-2,0,0,-5,-4
1.59101201949933e+15,1,-0,-1,-3,-1,-1,2,0
1.59101201951547e+15,-2,-0,-2,0,0,0,0,0
1.59101201951547e+15,-4,-2,-2,-2,-1,-1,-3,-1
1.59101201951724e+15,-1,1,0,0,-1,-1,0,2
1.59101201951724e+15,1,-1,-2,-3,-1,-1,-3,-1
1.59101201953819e+15,-2,-1,-2,0,-2,-2,-3,0
1.59101201953819e+15,-3,-2,0,-1,-2,-2,-7,-11
1.59101201953918e+15,1,2,-2,1,-1,-1,4,8
1.59101201953918e+15,-2,1,-1,0,-1,-1,-1,1
1.59101201956018e+15,-2,-1,-1,-1,-1,-1,0,-1
1.59101201956018e+15,-1,-0,0,0,-1,-1,2,-1
1.59101201956212e+15,0,-2,-2,-3,-2,-2,-3,-3
1.59101201956212e+15,1,-1,-2,-3,0,0,-1,0
1.59101201957532e+15,-2,-1,0,-3,1,1,-2,-4
1.59101201957532e+15,-4,-1,-2,-1,-1,-1,-1,0
1.59101201957708e+15,-2,-1,0,0,-1,-1,-2,-4
1.59101201957708e+15,-1,-1,-2,0,-2,-2,0,1
1.59101201959926e+15,-1,-1,-1,-1,-3,-3,-1,0
1.59101201959926e+15,0,-1,-2,-2,-2,-2,-4,0
1.59101201960002e+15,-2,-1,-3,-1,-1,-1,-1,-2
1.59101201960002e+15,-2,2,2,0,2,2,1,2
1.59101201961204e+15,-3,-2,-1,-1,-4,-4,-6,-5
1.59101201961204e+15,-1,1,1,0,0,0,1,4
1.59101201962697e+15,-2,-3,-3,-2,-1,-1,-3,-4
1.59101201962697e+15,0,-0,-2,-2,-1,-1,-1,-1
1.59101201963592e+15,0,-2,-2,-1,0,0,-4,-5
1.59101201963592e+15,0,1,0,-1,1,1,0,1
1.59101201963691e+15,-1,1,-1,-1,-1,-1,1,5
1.59101201963691e+15,-1,-0,0,-1,0,0,2,1
1.5910120196582e+15,1,-0,1,-2,-1,-1,-2,-1
1.5910120196582e+15,-3,-0,-2,1,-1,-1,0,1
1.59101201965985e+15,-3,-1,1,0,0,0,-3,-6
1.59101201965985e+15,-2,-1,-2,-1,-1,-1,-2,-4
1.59101201967285e+15,-2,-1,-2,0,-1,-1,-2,0
1.59101201967285e+15,0,-1,-3,-2,-2,-2,1,-1
1.59101201967894e+15,1,-1,-1,0,-2,-2,-1,-2
1.59101201967894e+15,-1,-1,-2,-2,-3,-3,0,-1
1.59101201970274e+15,-3,-1,-1,-1,-1,-1,-3,-2
1.59101201970274e+15,3,-0,1,-1,-2,-2,-2,-2
1.59101201970878e+15,0,1,0,-2,0,0,1,2
1.59101201970878e+15,-1,-0,0,-1,0,0,-2,-1
1.59101201971775e+15,0,-1,-4,0,-1,-1,-3,-2
1.59101201971775e+15,1,-1,-2,-1,-2,-2,-4,-3
1.59101201971969e+15,-1,-1,0,-3,-4,-4,0,-2
1.59101201971969e+15,-1,-0,1,0,0,0,0,-2
1.59101201974064e+15,-2,1,-1,-2,-1,-1,5,3
1.59101201974064e+15,0,-2,-2,0,-1,-1,-7,-7
1.59101201974164e+15,-1,-1,-2,-2,1,1,0,0
1.59101201974164e+15,-1,-0,0,-3,-2,-2,-2,-2
1.5910120197556e+15,1,1,0,0,-1,-1,1,4
1.5910120197556e+15,-3,-2,-3,-1,-2,-2,-1,-1
1.5910120197566e+15,-3,-2,0,-3,-2,-2,-3,-2
1.5910120197566e+15,-2,-0,1,0,1,1,-1,-5
1.59101201977859e+15,-2,-1,-1,-2,-2,-2,-3,-3
1.59101201977859e+15,-1,1,0,0,-1,-1,1,1
1.59101201978053e+15,-3,-2,-2,-2,0,0,0,-2
1.59101201978053e+15,0,-0,-1,-1,0,0,-4,-1
1.59101201979156e+15,-1,-1,-1,-1,-2,-2,-2,-2
1.59101201979156e+15,-1,-0,-2,-2,-2,-2,0,0
1.59101201980048e+15,-1,-1,-1,-1,-2,-2,-2,-2
1.59101201980048e+15,-3,-1,-2,0,-1,-1,-3,0
1.59101201981549e+15,-3,-1,-2,-1,0,0,-1,-3
1.59101201981549e+15,-3,-0,-1,-1,-1,-1,0,2
1.59101201981744e+15,-1,-1,-1,0,-1,-1,-1,-3
1.59101201981744e+15,-2,-1,-1,0,-2,-2,-1,-2
1.59101201984536e+15,0,1,0,-1,1,1,-1,0
1.59101201984536e+15,-1,-0,-1,-2,1,1,-1,-1
1.59101201984738e+15,0,-0,-1,1,0,0,1,0
1.59101201984738e+15,-1,-1,-1,0,-1,-1,-3,-7
1.59101201985134e+15,0,1,-2,-1,0,0,4,6
1.59101201985134e+15,-1,-2,-2,-2,-3,-3,-4,-2
1.59101201986032e+15,-3,-0,0,-3,-2,-2,-1,1
1.59101201986032e+15,1,-0,0,1,-2,-2,-1,-2
1.59101201987535e+15,0,-1,-1,-1,-1,-1,1,-2
1.59101201987535e+15,-3,-1,0,-1,0,0,0,-3
1.59101201987728e+15,0,-1,1,-2,-1,-1,-1,-2
1.59101201987728e+15,-1,-1,-1,-2,-2,-2,-2,-1
1.59101201989836e+15,-3,-1,0,-4,-2,-2,-1,-4
1.59101201989836e+15,-2,-1,-1,-1,-3,-3,0,0
1.5910120198993e+15,-1,-1,-3,0,-1,-1,0,-2
1.5910120198993e+15,-3,-2,-1,-1,-2,-2,-4,-1
1.59101201991218e+15,1,-0,-2,0,0,0,-3,-1
1.59101201991218e+15,0,-0,-1,-2,0,0,-1,1
1.59101201992115e+15,0,-0,-1,-2,-2,-2,0,0
1.59101201992115e+15,-2,-1,-1,-3,-1,-1,0,0
1.59101201993521e+15,-1,-1,-2,-2,-2,-2,-2,-1
1.59101201993521e+15,-3,-2,-2,-4,-1,-1,-4,-5
1.59101201993711e+15,-2,-1,-2,-2,-3,-3,-3,-1
1.59101201993711e+15,1,1,-1,-1,-1,-1,1,-2
1.5910120199581e+15,-1,-2,-3,-1,-2,-2,-4,-1
1.5910120199581e+15,0,-0,0,1,0,0,1,-2
1.59101201996005e+15,4,1,-3,0,0,0,-1,-2
1.59101201996005e+15,0,1,-1,-1,0,0,1,1
1.59101201997206e+15,-2,-2,-2,-1,-4,-4,-4,-3
1.59101201997206e+15,-1,-0,-1,0,-1,-1,-2,-1
1.59101201998099e+15,-2,-0,-1,-1,0,0,1,-2
1.59101201998099e+15,-1,-1,-1,-2,-3,-3,-1,-2
1.59101201999595e+15,-2,-0,0,-1,0,0,3,-1
1.59101201999595e+15,2,-0,0,-2,-1,-1,-2,1
1.59101201999696e+15,-1,-0,1,-1,-1,-1,-1,-1
1.59101201999696e+15,-4,-0,-1,-1,-1,-1,-1,5
1.59101202001801e+15,-2,-0,-2,0,-1,-1,0,-1
1.59101202001801e+15,-2,-1,-3,-2,0,0,-1,-4
1.59101202002004e+15,-1,-1,-1,-1,1,1,-1,-5
1.59101202002004e+15,0,-2,-1,-1,-1,-1,-3,-4
1.59101202003155e+15,0,-1,0,-4,-1,-1,-1,0
1.59101202003155e+15,-1,-0,0,-2,0,0,-2,1
1.5910120200404e+15,-1,-1,-2,-2,-2,-2,-4,1
1.5910120200404e+15,2,1,-1,-1,0,0,3,3
1.59101202006463e+15,-1,-1,-3,-1,-3,-3,-2,-1
1.59101202006463e+15,-1,-1,-2,-1,-2,-2,-1,-2
1.59101202006959e+15,-1,1,0,1,-1,-1,3,2
1.59101202006959e+15,1,1,1,1,-1,-1,0,0
1.59101202007833e+15,-1,-2,-1,-1,-1,-1,-3,-2
1.59101202007833e+15,-1,-1,-1,-1,-3,-3,0,-1
1.59101202007929e+15,-2,-0,-2,-2,1,1,-1,0
1.59101202007929e+15,-4,-0,-1,0,-1,-1,-1,-3
1.59101202009123e+15,-1,-0,1,-1,0,0,0,-3
1.59101202009123e+15,-1,-0,-1,-2,-2,-2,1,2
1.59101202010027e+15,-2,-1,-2,-1,0,0,0,-3
1.59101202010027e+15,0,-1,-2,-2,-2,-2,-3,-4
1.59101202011618e+15,-1,-0,-1,-1,-1,-1,0,-3
1.59101202011618e+15,-3,-3,-2,-3,-1,-1,-6,-4
1.59101202012137e+15,1,-0,0,-2,-2,-2,-1,2
1.59101202012137e+15,1,-0,-1,-3,-2,-2,1,4
1.59101202013815e+15,0,-0,-1,0,0,0,-1,2
1.59101202013815e+15,-3,-1,-2,-2,-1,-1,-1,-3
1.59101202013915e+15,-2,-2,-2,-3,-1,-1,-5,-9
1.59101202013915e+15,1,2,-2,0,1,1,3,3
1.59101202015208e+15,0,-0,-2,-1,0,0,-2,-3
1.59101202015208e+15,-4,-1,0,-1,-1,-1,-3,-1
1.59101202016107e+15,-2,-1,1,-2,-3,-3,-4,-4
1.59101202016107e+15,-1,-0,-1,-3,-1,-1,0,2
1.59101202017601e+15,-3,-1,0,-2,-1,-1,0,-1
1.59101202017601e+15,0,-0,0,1,-1,-1,-4,-5
1.59101202017701e+15,0,1,1,-1,-2,-2,1,1
1.59101202017701e+15,0,-1,-1,-2,0,0,-2,-1
1.59101202019803e+15,-1,-1,-2,-1,-1,-1,-1,1
1.59101202019803e+15,0,-0,-2,-1,-2,-2,-1,-1
1.59101202019995e+15,-1,-0,0,-2,-1,-1,-2,-2
1.59101202019995e+15,0,-1,-1,-1,-3,-3,0,-5
1.59101202022093e+15,-2,-2,-1,-3,-1,-1,-2,-3
1.59101202022093e+15,0,-0,1,-1,1,1,1,-1
1.59101202022189e+15,0,1,-1,-2,-1,-1,2,2
1.59101202022189e+15,-1,-0,-1,-1,0,0,-3,-1
1.59101202023491e+15,0,-1,-2,-2,-2,-2,-4,-2
1.59101202023491e+15,-1,-1,-2,-2,-3,-3,-2,-1
1.59101202024184e+15,-1,-0,-2,-1,-2,-2,-1,5
1.59101202024184e+15,-3,-1,-1,0,-1,-1,0,-1
1.59101202025804e+15,1,1,-1,1,0,0,3,2
1.59101202025804e+15,-2,-1,-1,-2,-2,-2,-1,-2
1.59101202025981e+15,0,-0,-4,-1,-1,-1,-2,0
1.59101202025981e+15,0,-0,0,-2,-1,-1,-1,-2
1.59101202028174e+15,-2,-0,0,-3,-1,-1,0,2
1.59101202028174e+15,0,-1,-2,-2,-2,-2,0,-2
1.59101202028274e+15,-1,-1,-2,-1,-2,-2,1,-2
1.59101202028274e+15,-4,-1,-1,-2,0,0,4,-1
1.5910120202957e+15,-1,-2,-2,0,-2,-2,-5,-4
1.5910120202957e+15,-2,-1,-2,-1,-2,-2,-1,-1
1.5910120202967e+15,0,-1,0,-1,-3,-3,-1,-3
1.5910120202967e+15,2,1,-1,1,-1,-1,-1,0
1.59101202031764e+15,0,-0,-1,-2,-1,-1,0,-1
1.59101202031764e+15,-1,-1,-1,-3,-2,-2,-6,0
1.59101202031964e+15,-1,-0,-2,-2,1,1,-2,-2
1.59101202031964e+15,-3,-1,-1,0,-1,-1,-1,-4
1.59101202034062e+15,-1,-1,0,2,-3,-3,-3,-1
1.59101202034062e+15,0,-1,-3,-1,0,0,0,1
1.59101202034257e+15,-1,-0,0,-2,-2,-2,-2,0
1.59101202034257e+15,-1,-3,-2,-2,-2,-2,-8,-8
1.59101202035508e+15,-3,1,-1,-2,0,0,3,6
1.59101202035508e+15,0,1,-2,1,-1,-1,2,2
1.59101202036206e+15,-2,-0,-1,1,-1,-1,-3,2
1.59101202036206e+15,-1,-1,-2,1,0,0,-3,-3
1.59101202037801e+15,1,1,0,0,1,1,4,0
1.59101202037801e+15,-2,-0,1,0,-2,-2,1,0
1.59101202038001e+15,-4,-2,-3,0,-1,-1,-3,-5
1.59101202038001e+15,0,-0,-2,1,0,0,-1,-1
1.59101202040095e+15,0,-0,-3,-2,-2,-2,1,0
1.59101202040095e+15,-1,-0,-1,-1,2,2,0,0
1.59101202040195e+15,0,-1,0,-1,-1,-1,-1,-5
1.59101202040195e+15,0,-0,-1,1,0,0,-1,-1
1.5910120204219e+15,0,-0,0,-2,0,0,-2,0
1.5910120204219e+15,-2,-1,0,-2,-1,-1,-2,-4
1.59101202043088e+15,-2,-1,-3,-2,-2,-2,-1,0
1.59101202043088e+15,0,-1,-1,-1,-2,-2,1,3
1.59101202043794e+15,-1,-1,-3,-2,-1,-1,-2,-2
1.59101202043794e+15,-2,-1,-2,-1,-3,-3,-2,-1
1.59101202043985e+15,0,-0,-1,1,-1,-1,0,2
1.59101202043985e+15,-1,-2,-1,-4,-2,-2,-3,-6
1.59101202046084e+15,0,-1,-1,-2,-2,-2,0,2
1.59101202046084e+15,-2,-0,1,-2,-1,-1,-1,0
1.59101202046179e+15,-1,-0,0,-2,-1,-1,1,1
1.59101202046179e+15,-1,1,-2,0,-1,-1,4,4
1.591012020475e+15,-2,-1,-3,0,-1,-1,0,-5
1.591012020475e+15,-1,-2,0,-4,-1,-1,-4,-4
1.5910120204822e+15,-1,-0,0,0,-1,-1,-2,1
1.5910120204822e+15,-2,-0,-1,-2,-1,-1,-1,2
1.59101202049826e+15,-3,-1,0,-2,-1,-1,-4,-2
1.59101202049826e+15,0,-1,-3,0,-1,-1,-1,-1
1.5910120204991e+15,-1,-1,-2,-2,-3,-3,-2,-5
1.5910120204991e+15,-1,-0,1,-1,-2,-2,1,2
1.59101202052112e+15,-2,-1,-2,0,-1,-1,-3,-4
1.59101202052112e+15,0,-1,-2,1,-3,-3,1,-2
1.59101202052204e+15,-3,-3,-1,-3,-2,-2,-3,-4
1.59101202052204e+15,-2,-0,-3,1,-1,-1,-1,-1
1.59101202053524e+15,0,-0,1,-2,0,0,-1,-1
1.59101202053524e+15,-1,-1,-2,-1,-1,-1,-3,-2
1.59101202054221e+15,-1,-1,-1,0,-1,-1,0,-3
1.59101202054221e+15,-2,-0,-1,-1,-2,-2,1,1
1.59101202055799e+15,-1,-1,-2,-1,0,0,-5,-7
1.59101202055799e+15,-2,1,0,0,-2,-2,1,6
1.5910120205719e+15,0,1,-3,-1,-2,-2,3,6
1.5910120205719e+15,0,-0,1,-1,-1,-1,-4,-2
1.59101202058092e+15,0,-2,-1,-2,0,0,-2,-3
1.59101202058092e+15,-1,-1,-1,-1,-2,-2,0,-4
1.59101202058188e+15,-2,-2,0,-1,-3,-3,-6,-4
1.59101202058188e+15,1,-0,-1,0,0,0,1,3
1.59101202060305e+15,-2,-0,-2,0,-1,-1,0,-1
1.59101202060305e+15,1,-1,-3,-1,-1,-1,-1,-2
1.59101202060482e+15,-3,-1,-1,-1,0,0,0,-3
1.59101202060482e+15,-2,-1,0,0,-2,-2,-2,-3
1.59101202061784e+15,-3,-1,0,0,-2,-2,-1,2
1.59101202061784e+15,0,1,1,-1,-2,-2,1,-1
1.59101202061978e+15,1,-0,-1,-1,2,2,-1,-2
1.59101202061978e+15,1,-0,-3,-2,0,0,-1,1
1.59101202064077e+15,0,-0,-2,-1,-2,-2,0,-1
1.59101202064077e+15,-2,-1,-3,-2,-1,-1,-2,-2
1.59101202064172e+15,2,-0,-2,-1,-1,-1,1,-1
1.59101202064172e+15,-2,-2,-1,-3,-2,-2,-2,-4
1.59101202065469e+15,0,1,0,0,-1,-1,1,4
1.59101202065469e+15,-1,-1,0,-1,-2,-2,-4,-4
1.59101202066166e+15,-1,-1,-1,-2,-2,-2,-2,1
1.59101202066166e+15,-2,-0,-1,-2,-1,-1,-1,3
1.5910120206856e+15,-1,1,0,0,0,0,1,2
1.5910120206856e+15,-3,-0,-2,-1,-2,-2,1,2
1.59101202069272e+15,-2,-2,-1,-2,-1,-1,-4,-3
1.59101202069272e+15,-1,-0,-1,-1,-2,-2,-1,0
1.59101202070061e+15,0,-1,-2,-1,-2,-2,-5,-1
1.59101202070061e+15,-2,-1,-2,0,-3,-3,-3,-2
1.59101202071463e+15,-2,-0,-1,-1,-1,-1,0,0
1.59101202071463e+15,-1,-0,0,-1,-1,-1,0,-1
1.59101202071552e+15,-2,-1,-3,1,-1,-1,-1,0
1.59101202071552e+15,-3,-1,-1,-2,0,0,-3,-2
1.5910120207235e+15,0,-0,0,-1,0,0,2,-2
1.5910120207235e+15,0,-1,-1,-1,-2,-2,-3,-2
1.59101202073846e+15,0,-0,1,-3,0,0,0,0
1.59101202073846e+15,0,1,0,0,1,1,0,2
1.59101202073945e+15,-5,-1,-3,1,-3,-3,-1,0
1.59101202073945e+15,-1,-1,-3,-3,-2,-2,-1,0
1.59101202076141e+15,1,-2,-1,-3,-1,-1,-5,-2
1.59101202076141e+15,-1,-2,-1,0,-2,-2,-1,-3
1.5910120207624e+15,0,-0,-1,-2,-1,-1,1,-1
1.5910120207624e+15,-1,-1,-2,-1,0,0,0,-3
1.59101202077463e+15,-2,-1,-2,0,-3,-3,-2,-3
1.59101202077463e+15,-1,-2,-1,-2,-3,-3,-4,-7
1.59101202079111e+15,0,1,0,-2,-1,-1,4,5
1.59101202079111e+15,-1,-1,-1,-1,-1,-1,-1,-1
1.59101202079809e+15,-2,-1,-1,-3,-1,-1,1,0
1.59101202079809e+15,-1,-1,0,-2,-1,-1,-2,-3
1.59101202079909e+15,0,-1,-1,-2,-1,-1,-1,-1
1.59101202079909e+15,-1,-1,-1,-2,-3,-3,-2,0
1.59101202082122e+15,0,-1,0,-1,-2,-2,-2,-3
1.59101202082122e+15,0,-1,-2,-3,-1,-1,-2,0
1.59101202082303e+15,-1,-0,-2,-1,-1,-1,-1,-3
1.59101202082303e+15,0,-0,-1,-1,-1,-1,0,0
1.59101202083399e+15,-2,-3,-2,-2,-4,-4,-6,-5
1.59101202083399e+15,0,1,0,-1,1,1,4,4
1.59101202084896e+15,0,-1,-3,-2,-2,-2,-1,-3
1.59101202084896e+15,-3,-1,0,1,-2,-2,-1,-6
1.59101202085793e+15,-1,-0,0,-1,-1,-1,-1,-1
1.59101202085793e+15,-2,-1,-1,0,-2,-2,-1,-2
1.59101202085993e+15,-1,-0,1,1,1,1,-3,-3
1.59101202085993e+15,-1,-1,-3,-1,2,2,-3,-3
1.5910120208809e+15,-2,-0,-1,0,0,0,1,0
1.5910120208809e+15,-1,1,0,-1,0,0,0,0
1.59101202088199e+15,-2,-2,-1,-4,-2,-2,-2,-3
1.59101202088199e+15,-2,-2,-2,-2,-2,-2,-5,-6
1.59101202089384e+15,1,3,0,1,1,1,3,9
1.59101202089384e+15,0,-0,-2,0,-1,-1,-1,0
1.59101202090289e+15,-1,-0,-2,1,0,0,-1,1
1.59101202090289e+15,0,-0,0,-1,-3,-3,0,-3
1.59101202091877e+15,-2,-1,-1,-2,0,0,-2,-5
1.59101202091877e+15,-3,-3,-3,-3,-1,-1,-5,-4
1.59101202091977e+15,1,1,1,-1,-2,-2,1,3
1.59101202091977e+15,-2,-0,-1,-1,-2,-2,-1,3
1.59101202094076e+15,-1,-2,-3,-3,-1,-1,0,-4
1.59101202094076e+15,-3,-1,1,-2,-2,-2,1,-2
1.59101202094182e+15,-3,-0,0,-1,-1,-1,-1,1
1.59101202094182e+15,1,-0,-1,0,1,1,-1,0
1.59101202095467e+15,-2,-0,-1,-2,-1,-1,-1,0
1.59101202095467e+15,-2,-2,-1,-3,-3,-3,-2,-5
1.59101202096272e+15,-2,2,1,2,2,2,2,1
1.59101202096272e+15,0,-0,0,-2,-1,-1,1,3
1.59101202097761e+15,-2,-1,-2,-1,-2,-2,-4,-2
1.59101202097761e+15,0,1,-3,-2,0,0,2,2
1.59101202097961e+15,0,-2,-4,-1,-1,-1,-7,-9
1.59101202097961e+15,0,1,-2,0,0,0,3,5
1.59101202099955e+15,1,-2,-1,-3,-2,-2,-4,-4
1.59101202099955e+15,0,-0,0,-1,-1,-1,-1,2
1.59101202100854e+15,-2,-1,-1,0,0,0,-2,-5
1.59101202100854e+15,0,-0,-1,0,0,0,-1,1
1.59101202102283e+15,-2,-1,-2,-1,-2,-2,-2,-2
1.59101202102283e+15,2,2,0,1,0,0,3,5
1.59101202102483e+15,0,-2,-2,-3,-2,-2,-5,-5
1.59101202102483e+15,-2,-0,0,0,-2,-2,0,-1
1.59101202103779e+15,-1,-1,-1,-1,0,0,-1,-1
1.59101202103779e+15,-1,-1,-1,-2,-3,-3,-1,0
1.59101202103978e+15,0,-0,0,-3,0,0,0,2
1.59101202103978e+15,-2,-1,-1,-1,-1,-1,-2,-2
1.59101202106073e+15,-2,-0,-2,1,0,0,-1,-2
1.59101202106073e+15,-2,-0,0,1,-1,-1,1,1
1.59101202107481e+15,-1,-1,-1,-1,-4,-4,-2,-2
1.59101202107481e+15,2,-1,-2,-2,-1,-1,-3,-3
1.59101202107569e+15,-4,1,0,-1,-1,-1,4,6
1.59101202107569e+15,-1,-0,-1,-1,0,0,0,0
1.59101202108969e+15,-2,-1,-2,-1,-1,-1,0,-1
1.59101202108969e+15,-1,-1,-1,-2,-2,-2,0,0
1.59101202109772e+15,-2,-2,-1,-2,-3,-3,-5,-5
1.59101202109772e+15,-1,-0,0,-1,0,0,-2,-3
1.59101202110471e+15,1,-0,-1,-2,-1,-1,1,1
1.59101202110471e+15,-2,-1,-1,0,0,0,-2,-5
1.59101202112263e+15,2,-1,-2,-3,-1,-1,-5,-3
1.59101202112263e+15,-2,-1,-3,-1,-1,-1,-2,-1
1.59101202112345e+15,0,-0,-2,1,1,1,-1,0
1.59101202112345e+15,-1,-0,-1,-2,-1,-1,0,1
1.5910120211434e+15,-1,-0,-2,-1,-1,-1,2,1
1.5910120211434e+15,1,-1,-1,-1,-1,-1,-3,-3
1.5910120211444e+15,0,-1,-2,-1,-1,-1,-3,-3
1.5910120211444e+15,-3,-2,-1,-1,-2,-2,-3,-2
1.59101202115836e+15,1,-0,0,0,0,0,1,0
1.59101202115836e+15,-4,-2,-2,-2,-2,-2,-3,-2
1.59101202115936e+15,-1,-1,0,-2,0,0,-1,0
1.59101202115936e+15,-2,-0,0,-1,-1,-1,-1,-1
1.59101202118037e+15,-1,-1,-1,-1,-1,-1,-2,-3
1.59101202118037e+15,-3,-1,0,-1,-1,-1,-2,-2
1.59101202118229e+15,0,1,2,-2,-2,-2,3,4
1.59101202118229e+15,-3,-2,-3,-3,-3,-3,-2,1
1.59101202120304e+15,-3,-0,0,0,-1,-1,-1,0
1.59101202120304e+15,1,-0,-1,0,0,0,-2,-2
1.59101202120501e+15,-2,1,-1,-1,0,0,4,1
1.59101202120501e+15,0,-1,0,1,-2,-2,-4,-6
1.59101202121797e+15,-2,-2,-3,-2,1,1,-3,-7
1.59101202121797e+15,2,2,0,0,0,0,3,4
1.59101202121997e+15,1,-0,-1,-1,-1,-1,-2,-1
1.59101202121997e+15,-1,-0,-1,-2,-1,-1,-1,-1
1.59101202124091e+15,-2,-3,-1,-3,-2,-2,-4,-6
1.59101202124091e+15,-1,-0,0,0,0,0,0,0
1.59101202124191e+15,0,-0,-1,0,0,0,-2,-1
1.59101202124191e+15,-1,-1,0,0,-1,-1,-1,0
1.59101202126289e+15,1,1,-3,0,-1,-1,1,1
1.59101202126289e+15,-1,-1,-1,-1,-2,-2,-3,-2
1.59101202126488e+15,0,-0,1,0,-2,-2,-2,0
1.59101202126488e+15,-1,-1,-2,-1,-1,-1,-3,-1
1.59101202127781e+15,-1,-1,-2,-1,-2,-2,0,-1
1.59101202127781e+15,-2,-3,-1,-2,-1,-1,-7,-9
1.59101202128406e+15,0,1,-2,-1,0,0,2,4
1.59101202128406e+15,-1,-0,0,-2,-1,-1,0,2
1.59101202130002e+15,0,-1,-1,-3,-3,-3,-2,2
1.59101202130002e+15,0,-1,-2,-4,-4,-4,-1,0
1.59101202130201e+15,-3,-1,-2,-1,-2,-2,-2,-3
1.59101202130201e+15,0,-0,-2,1,0,0,-1,0
1.59101202132298e+15,-1,-0,-1,0,-3,-3,0,-2
1.59101202132298e+15,-1,1,0,0,0,0,2,0
1.59101202132495e+15,-2,-2,0,-1,-1,-1,-3,-3
1.59101202132495e+15,0,-0,-2,-1,0,0,2,1
1.59101202133796e+15,-3,-1,1,-1,-1,-1,-4,-1
1.59101202133796e+15,-2,1,0,0,0,0,1,3
1.5910120213439e+15,-1,-1,-2,-1,0,0,-2,-3
1.5910120213439e+15,-2,-1,-1,-2,0,0,-3,-3
1.59101202136783e+15,-1,-0,0,-3,-1,-1,2,0
1.59101202136783e+15,0,-1,-1,0,-2,-2,-4,0
1.59101202136983e+15,1,-0,0,0,-1,-1,-1,-2
1.59101202136983e+15,2,1,0,-1,-1,-1,-1,1
1.59101202138282e+15,-1,-0,-1,-2,-1,-1,-1,-2
1.59101202138282e+15,-1,-0,-3,-1,-2,-2,2,0
1.59101202138479e+15,-2,-2,-1,-1,-2,-2,-2,-4
1.59101202138479e+15,0,-0,-1,-2,-1,-1,-2,1
1.59101202139775e+15,-1,-0,-1,-2,-2,-2,1,4
1.59101202139775e+15,-2,-1,-1,-2,-2,-2,-1,-1
1.59101202140389e+15,0,-0,0,-1,0,0,0,-1
1.59101202140389e+15,0,-0,-1,0,0,0,-2,-3
1.59101202142081e+15,-2,-2,-2,-1,-1,-1,-3,-3
1.59101202142081e+15,-1,-0,1,-1,-1,-1,-3,-3
1.59101202142181e+15,-2,-2,-3,0,-2,-2,-3,-5
1.59101202142181e+15,-4,-1,-3,-1,-2,-2,-1,-3
1.59101202144273e+15,0,-0,0,0,-1,-1,1,0
1.59101202144273e+15,-1,-1,-3,-2,-2,-2,-1,-3
1.59101202144463e+15,0,-0,0,0,-2,-2,0,-1
1.59101202144463e+15,-1,-1,-1,-3,-1,-1,-1,-1
1.59101202145788e+15,0,-0,-2,-3,0,0,2,2
1.59101202145788e+15,-2,-0,-2,0,-1,-1,0,0
1.5910120214647e+15,0,-1,0,-2,-2,-2,-2,-1
1.5910120214647e+15,-3,-0,-2,1,-2,-2,-1,2
1.59101202148058e+15,-1,-2,-1,-3,-2,-2,-4,-3
1.59101202148058e+15,0,-1,-1,0,0,0,-2,-3
1.59101202148253e+15,-1,1,-2,0,-2,-2,2,7
1.59101202148253e+15,1,-1,-2,-2,-1,-1,-1,-2
1.59101202150199e+15,-2,-1,1,-1,-1,-1,-2,-5
1.59101202150199e+15,0,-1,-1,-3,0,0,-1,-4
1.59101202151801e+15,0,-2,-2,-3,-1,-1,-4,-6
1.59101202151801e+15,-1,-2,-1,-3,-1,-1,-1,-2
1.59101202151895e+15,-1,-1,-2,0,-1,-1,-2,-4
1.59101202151895e+15,-1,2,-1,-2,0,0,4,4
1.591012021524e+15,-1,-0,-1,-1,-2,-2,0,0
1.591012021524e+15,-1,-0,-1,0,1,1,1,1
1.59101202154093e+15,-3,-0,-1,0,-2,-2,-1,-1
1.59101202154093e+15,-1,-2,-1,-2,-3,-3,-4,-4
1.59101202154188e+15,1,-0,0,0,-2,-2,-2,-1
1.59101202154188e+15,-1,-0,1,-1,-1,-1,-2,-2
1.59101202156389e+15,0,-1,-1,-3,-2,-2,-1,-1
1.59101202156389e+15,-1,-0,-1,0,-2,-2,1,-1
1.59101202156482e+15,-2,-0,0,-2,-1,-1,1,0
1.59101202156482e+15,-2,-1,0,0,-2,-2,-3,-1
1.59101202157679e+15,-1,-1,-2,0,-1,-1,-2,2
1.59101202157679e+15,-1,-1,0,-1,-2,-2,-3,-2
1.59101202159182e+15,-3,-0,-2,1,-1,-1,-2,-3
1.59101202159182e+15,-2,-2,-1,-1,-1,-1,-3,-5
1.5910120216008e+15,0,-0,-3,-4,-1,-1,2,4
1.5910120216008e+15,-2,-0,0,-4,-1,-1,1,1
1.59101202160172e+15,0,-1,-1,-2,0,0,-3,-3
1.59101202160172e+15,-1,-0,1,-1,0,0,0,2
1.59101202162274e+15,0,-0,-3,-1,-1,-1,-1,-1
1.59101202162274e+15,-3,-1,-2,0,-1,-1,-3,-1
1.59101202162467e+15,-2,-1,-2,-1,-2,-2,1,0
1.59101202162467e+15,-1,-2,-3,-1,-1,-1,-3,-7
1.59101202164563e+15,-2,-0,-1,0,-1,-1,0,-1
1.59101202164563e+15,-1,-1,-1,0,0,0,-1,-4
1.59101202164663e+15,1,-1,0,-2,-2,-2,-1,0
1.59101202164663e+15,1,1,0,-2,0,0,1,2
1.59101202166057e+15,-2,-1,0,0,0,0,-3,-2
1.59101202166057e+15,-2,-1,-2,-1,-1,-1,1,-1
1.59101202166157e+15,-1,-1,-1,0,-1,-1,-2,-1
1.59101202166157e+15,1,-0,-2,2,-3,-3,-1,0
1.5910120216835e+15,-2,-0,-1,-2,-2,-2,2,3
1.5910120216835e+15,-1,-2,-1,-1,-1,-1,-4,-5
1.59101202168561e+15,1,2,-2,-1,2,2,4,7
1.59101202168561e+15,-2,-1,-1,-1,-1,-1,-4,-3
1.59101202169661e+15,-3,-1,-2,-1,-1,-1,-2,-1
1.59101202169661e+15,3,1,0,-1,-3,-3,0,0
1.59101202170545e+15,-1,-2,-3,-1,-2,-2,-2,-4
1.59101202170545e+15,-1,-0,0,-3,-1,-1,1,-1
1.5910120217214e+15,-1,-1,0,0,-1,-1,-5,-4
1.5910120217214e+15,-1,-1,-1,-1,-2,-2,-1,-1
1.59101202174335e+15,-1,-1,-1,-1,-1,-1,-2,-2
1.59101202174335e+15,-1,-1,-2,-3,-2,-2,1,1
1.59101202174435e+15,-1,-1,1,-1,1,1,-2,-2
1.59101202174435e+15,-3,-0,0,1,1,1,0,0
1.59101202174634e+15,-1,-0,1,-1,-3,-3,0,-1
1.59101202174634e+15,-1,-1,-1,-2,-3,-3,-4,-4
1.59101202175636e+15,2,1,-1,-1,-1,-1,3,1
1.59101202175636e+15,-1,-2,-2,-2,0,0,-2,-3
1.59101202176529e+15,-2,-0,-3,-3,-2,-2,1,3
1.59101202176529e+15,1,-0,-1,-1,0,0,1,1
1.5910120217805e+15,-2,-2,-1,-1,0,0,-3,-7
1.5910120217805e+15,0,1,-1,-2,-2,-2,2,4
1.59101202179422e+15,-2,-2,1,0,0,0,-5,-8
1.59101202179422e+15,1,-0,-2,-2,0,0,3,4
1.59101202180328e+15,-1,-1,0,-2,-3,-3,-1,0
1.59101202180328e+15,-2,-1,-3,-1,0,0,0,-1
1.59101202180424e+15,2,1,0,2,0,0,-2,-3
1.59101202180424e+15,-3,-2,-3,-1,-2,-2,-3,-5
1.59101202181643e+15,-1,-1,-2,-3,-1,-1,-2,-1
1.59101202181643e+15,0,-0,-1,-4,-1,-1,1,0
1.59101202182541e+15,-2,-0,-2,-2,-1,-1,1,0
1.59101202182541e+15,1,-0,-2,-1,-5,-5,-1,-2
1.59101202184136e+15,-3,-1,1,2,0,0,-3,-5
1.59101202184136e+15,-2,-2,-2,-1,-4,-4,-2,-3
1.59101202184314e+15,2,1,-1,-1,0,0,1,5
1.59101202184314e+15,0,-0,-2,0,0,0,1,0
1.59101202186309e+15,0,-1,-1,-2,-2,-2,-1,-2
1.59101202186309e+15,-2,-1,-2,-2,0,0,-3,-4
1.59101202186408e+15,-1,-2,-1,-2,-2,-2,-2,-2
1.59101202186408e+15,-2,-0,0,-1,1,1,-1,-1
1.59101202187705e+15,1,-0,-3,-2,-2,-2,1,0
1.59101202187705e+15,0,-0,0,0,0,0,-1,-1
1.59101202188614e+15,-1,-1,-1,-1,1,1,0,-3
1.59101202188614e+15,-3,-1,-1,-2,-2,-2,-2,5
1.59101202190101e+15,-1,1,0,0,-1,-1,0,2
1.59101202190101e+15,-2,-0,-1,1,0,0,-1,1
1.59101202190198e+15,-1,-0,-1,-1,-1,-1,-1,0
1.59101202190198e+15,-1,-1,-1,-2,-1,-1,-4,-3
1.59101202192295e+15,-2,-1,0,0,0,0,-1,-2
1.59101202192295e+15,1,-0,-1,-3,-2,-2,0,0
1.59101202193888e+15,-1,-2,-2,-1,-2,-2,-3,-4
1.59101202193888e+15,1,1,1,0,0,0,4,0
1.59101202193988e+15,1,-1,-1,-1,-1,-1,-3,0
1.59101202193988e+15,-1,-0,0,0,-1,-1,-1,-2
1.59101202194586e+15,-1,-0,-1,-2,-1,-1,-2,-3
1.59101202194586e+15,0,1,0,1,-1,-1,0,-1
1.59101202196085e+15,0,-2,-2,0,-3,-3,0,-4
1.59101202196085e+15,-2,-0,-1,0,-1,-1,-2,-5
1.59101202196182e+15,0,-0,-1,-2,-1,-1,3,3
1.59101202196182e+15,-4,-3,-2,-3,-1,-1,-3,-5
1.59101202198176e+15,-1,-0,-1,-2,-1,-1,1,0
1.59101202198176e+15,0,-0,0,1,-1,-1,-5,-1
1.59101202199075e+15,-1,-0,-1,-2,1,1,-2,5
1.59101202199075e+15,0,-0,-3,0,1,1,0,-2
1.59101202199673e+15,1,1,-1,0,-2,-2,1,1
1.59101202199673e+15,0,1,-2,-2,-1,-1,2,1
1.59101202201169e+15,-1,-1,0,1,-1,-1,-2,-3
1.59101202201169e+15,-1,-2,0,-3,-2,-2,-4,-5
1.59101202202066e+15,-1,-2,-1,-1,-1,-1,-2,-6
1.59101202202066e+15,0,-2,-2,-3,-4,-4,-2,-4
1.59101202202166e+15,0,-1,0,-1,-2,-2,-3,-4
1.59101202202166e+15,0,1,-2,0,-3,-3,2,2
1.59101202204264e+15,-2,-0,-2,-1,-1,-1,-1,0
1.59101202204264e+15,-2,-0,0,1,0,0,-2,1
1.5910120220446e+15,-1,-1,-2,-3,0,0,-1,1
1.5910120220446e+15,-3,-2,-1,-2,-1,-1,-4,-1
1.59101202205664e+15,0,-0,1,0,-1,-1,-2,-3
1.59101202205664e+15,-1,-0,0,-1,-1,-1,1,-1
1.59101202207159e+15,-3,-2,-2,0,-2,-2,-5,-5
1.59101202207159e+15,0,1,-1,0,0,0,3,2
1.5910120220805e+15,-3,-1,-3,-2,-1,-1,-1,0
1.5910120220805e+15,-2,-2,0,-1,-2,-2,-7,-4
1.59101202208656e+15,-1,2,1,1,1,1,3,4
1.59101202208656e+15,-2,-2,-1,-4,-1,-1,-3,-2
1.59101202210344e+15,-5,-1,0,0,0,0,-3,0
1.59101202210344e+15,1,-1,-1,0,-3,-3,0,-5
1.59101202210444e+15,-1,-0,-3,-2,-2,-2,-1,2
1.59101202210444e+15,-2,-1,-3,-1,-3,-3,-2,1
1.59101202212453e+15,0,-0,-1,-2,-2,-2,0,-2
1.59101202212453e+15,0,1,-2,-1,0,0,3,3
1.59101202212538e+15,-1,-1,-1,-2,-4,-4,-2,-1
1.59101202212538e+15,-1,-0,0,0,-1,-1,-1,-2
1.59101202214049e+15,-1,-1,-2,0,-2,-2,-1,-2
1.59101202214049e+15,-2,-0,0,0,0,0,-1,0
1.59101202214049e+15,-2,-1,-1,-1,-1,-1,-1,-2
1.59101202214049e+15,-1,-3,-2,-1,-2,-2,-6,-7
1.59101202216231e+15,0,-0,-2,-1,0,0,0,-1
1.59101202216231e+15,1,-0,0,0,0,0,-1,-1
1.59101202216328e+15,-1,-1,-1,-2,-2,-2,-2,-1
1.59101202216328e+15,0,-0,-2,-1,-1,-1,-2,0
1.59101202218525e+15,-3,-0,-1,1,-1,-1,1,0
1.59101202218525e+15,-1,-1,-2,0,-3,-3,-2,-3
1.59101202218525e+15,0,1,0,0,0,0,2,1
1.59101202218525e+15,-2,-0,0,-2,-1,-1,3,1
1.59101202219974e+15,1,-0,-2,-3,-2,-2,0,0
1.59101202219974e+15,-2,-0,0,-1,0,0,-1,0
1.5910120222007e+15,0,-1,-2,-1,-3,-3,-3,-3
1.5910120222007e+15,-3,-1,-2,-2,-1,-1,1,1
1.59101202222264e+15,-2,-0,-2,1,0,0,-1,-1
1.59101202222264e+15,-2,-0,0,-1,-2,-2,0,1
1.59101202222264e+15,-1,-1,0,-2,0,0,-1,-1
1.59101202222264e+15,0,-0,-1,-2,-1,-1,1,0
1.59101202224459e+15,0,-0,-1,-3,-1,-1,0,-1
1.59101202224459e+15,0,-0,0,-2,-2,-2,-3,1
1.59101202224559e+15,0,-0,-1,0,-1,-1,-2,-1
1.59101202224559e+15,0,-0,-2,0,-2,-2,-1,-1
1.59101202226154e+15,-1,-1,-1,0,0,0,-1,0
1.59101202226154e+15,-1,-0,-2,0,-1,-1,0,0
1.59101202226254e+15,-1,-1,-1,0,-2,-2,-2,-3
1.59101202226254e+15,-2,-2,-1,0,-2,-2,-4,-4
1.59101202228266e+15,-1,-1,-2,0,-1,-1,-2,-3
1.59101202228266e+15,-2,-0,-2,1,0,0,1,2
1.59101202228348e+15,-1,-1,-1,0,-2,-2,-1,-2
1.59101202228348e+15,-2,-1,-1,0,-1,-1,-2,-4
1.59101202230545e+15,-2,-0,1,-1,0,0,0,0
1.59101202230545e+15,0,1,1,2,0,0,2,-1
1.59101202230545e+15,-1,-0,-3,-2,1,1,0,1
1.59101202230545e+15,0,-1,-2,-4,-1,-1,-2,0
1.59101202232043e+15,0,-0,-1,-3,-1,-1,0,1
1.59101202232043e+15,1,-1,-2,-1,-1,-1,-3,-4
1.59101202232043e+15,-1,-0,1,0,0,0,-1,-1
1.59101202232043e+15,-1,-1,-2,0,-1,-1,-1,-2
1.59101202235046e+15,-3,-3,0,-2,-3,-3,-5,-6
1.59101202235046e+15,0,-0,-2,0,-1,-1,0,-2
1.5910120223513e+15,0,-2,-2,0,-4,-4,-2,-3
1.5910120223513e+15,-1,-2,-2,-2,0,0,-5,-7
1.59101202236527e+15,0,1,-2,-1,-2,-2,5,8
1.59101202236527e+15,2,-0,-2,-1,-1,-1,0,-1
1.59101202236527e+15,-1,-2,-1,-1,-1,-1,-3,-3
1.59101202236527e+15,-1,-0,1,-1,-1,-1,-2,-1
1.59101202238122e+15,-1,-1,-2,-2,1,1,1,-3
1.59101202238122e+15,-1,-0,-2,-1,-1,-1,-1,-2
1.59101202238222e+15,-2,-0,-1,0,0,0,-2,0
1.59101202238222e+15,-2,-2,-1,-2,0,0,-3,-2
1.5910120224022e+15,1,-0,0,-2,-1,-1,1,-1
1.5910120224022e+15,0,1,1,-3,-2,-2,1,2
1.59101202240316e+15,-1,-1,-2,0,-1,-1,-4,-3
1.59101202240316e+15,-1,-0,-2,-1,0,0,-1,1
1.5910120224251e+15,-1,-1,-3,0,0,0,-2,-4
1.5910120224251e+15,0,-0,-1,1,-1,-1,-2,-1
1.5910120224251e+15,-3,-0,1,-1,-3,-3,1,0
1.5910120224251e+15,-2,-0,-1,-2,-2,-2,1,2
1.59101202243912e+15,0,-0,1,-1,-1,-1,-5,-3
1.59101202243912e+15,-1,-1,-2,0,0,0,-4,-5
1.59101202244709e+15,0,1,-1,-1,0,0,2,0
1.59101202244709e+15,0,-0,-2,-1,0,0,2,2
1.59101202246204e+15,-3,-0,0,-1,-1,-1,0,1
1.59101202246204e+15,1,1,0,1,2,2,1,3
1.591012022463e+15,1,-1,-1,-2,-1,-1,0,-1
1.591012022463e+15,-1,-1,-2,-4,-2,-2,-3,-1
1.59101202248499e+15,0,-0,-1,0,-1,-1,-1,-3
1.59101202248499e+15,-1,-1,0,-1,-1,-1,-2,-3
1.59101202248594e+15,-1,-0,-1,-3,0,0,3,-1
1.59101202248594e+15,-2,-0,0,1,1,1,-1,-3
1.59101202250788e+15,-3,-1,-1,2,-1,-1,-3,-2
1.59101202250788e+15,-2,-0,0,-2,-2,-2,-3,0
1.59101202250888e+15,0,-0,-2,-2,0,0,-2,-3
1.59101202250888e+15,-1,-0,-1,-1,-4,-4,0,2
1.59101202252284e+15,0,-1,-2,0,-3,-3,-3,-4
1.59101202252284e+15,-3,-1,0,-1,-1,-1,1,-2
1.59101202252384e+15,-2,-1,-2,-1,-1,-1,-3,-2
1.59101202252384e+15,0,-0,-2,-2,0,0,-3,-2
1.59101202254483e+15,-2,-0,-1,-2,1,1,0,-1
1.59101202254483e+15,0,-2,-1,-1,-4,-4,-5,-4
1.59101202254578e+15,0,-1,-2,-1,-1,-1,-3,-1
1.59101202254578e+15,-4,-2,-1,-1,-3,-3,-1,-2
1.59101202255874e+15,0,1,-1,0,-1,-1,2,5
1.59101202255874e+15,-2,-0,-1,0,0,0,-1,1
1.59101202256792e+15,-2,-1,-1,0,-1,-1,-4,-3
1.59101202256792e+15,1,1,-1,-1,-2,-2,6,8
1.59101202258272e+15,-1,-1,1,-4,-1,-1,-4,-3
1.59101202258272e+15,-1,-0,-1,-2,-1,-1,0,-2
1.59101202258272e+15,1,-0,0,0,-1,-1,-2,0
1.59101202258272e+15,-1,-1,-1,-2,-3,-3,-2,-4
1.59101202260662e+15,-1,-1,-1,-2,-3,-3,-2,-2
1.59101202260662e+15,2,1,0,-3,0,0,0,2
1.59101202260662e+15,-5,-2,-1,0,-3,-3,-3,-2
1.59101202260662e+15,-2,-3,-2,-2,-2,-2,-5,-6
1.59101202261958e+15,1,-0,-2,-1,-1,-1,0,1
1.59101202261958e+15,-2,-0,2,1,-1,-1,0,1
1.59101202262656e+15,-1,-0,-1,-2,0,0,0,1
1.59101202262656e+15,-1,-0,0,-1,1,1,-2,-2
1.59101202264255e+15,-1,-1,-1,-1,0,0,-1,-4
1.59101202264255e+15,0,-1,-2,0,-2,-2,-2,-3
1.59101202264255e+15,0,1,0,-1,-1,-1,2,3
1.59101202264255e+15,-2,-1,-1,-1,0,0,0,1
1.5910120226645e+15,-3,-2,-1,-2,-2,-2,-1,-3
1.5910120226645e+15,-1,-1,-1,0,-1,-1,0,-5
1.59101202267271e+15,-1,-0,0,1,-2,-2,1,1
1.59101202267271e+15,-1,-2,-2,0,-1,-1,-3,-1
1.59101202268042e+15,-1,-0,-1,-2,-1,-1,0,0
1.59101202268042e+15,-1,-1,-3,-1,-1,-1,-1,-1
1.59101202268743e+15,0,-2,-3,-3,-2,-2,-4,-5
1.59101202268743e+15,-2,-1,-3,-1,-1,-1,1,1
1.59101202270265e+15,-1,-0,-1,0,0,0,-1,-2
1.59101202270265e+15,0,-1,-2,-1,-1,-1,-2,1
1.59101202270336e+15,0,-0,-1,-3,0,0,1,1
1.59101202270336e+15,-3,-1,-1,-2,-2,-2,-1,-3
1.5910120227254e+15,-1,-2,-3,-1,-3,-3,-3,-5
1.5910120227254e+15,-1,-2,-1,-2,0,0,-1,-8
1.5910120227254e+15,-2,2,0,0,-1,-1,2,9
1.5910120227254e+15,0,-0,0,-1,-2,-2,-1,0
1.5910120227394e+15,-1,-1,0,0,-2,-2,-1,-2
1.5910120227394e+15,-2,-0,-2,-2,-1,-1,2,3
1.59101202274728e+15,-1,-2,-2,-1,0,0,-6,-6
1.59101202274728e+15,-1,-0,-1,-1,1,1,-1,-4
1.59101202276224e+15,-2,-0,-1,-1,-1,-1,2,2
1.59101202276224e+15,-1,-2,-1,-1,-2,-2,-5,-3
1.5910120227632e+15,-2,-0,-1,-1,0,0,-1,-4
1.5910120227632e+15,1,-1,-3,-1,-2,-2,-3,1
1.59101202278614e+15,-1,-1,0,-1,-2,-2,-3,-1
1.59101202278614e+15,-2,-0,-2,-1,-3,-3,1,3
1.59101202279192e+15,1,-0,0,0,-1,-1,1,0
1.59101202279192e+15,-3,-1,-1,0,-1,-1,-3,-4
1.59101202279909e+15,-1,-0,-2,-2,1,1,0,1
1.59101202279909e+15,-1,-0,-2,-2,-1,-1,0,1
1.59101202280688e+15,-1,-1,-2,-2,-1,-1,-1,-4
1.59101202280688e+15,-2,-2,1,-2,-2,-2,-2,-5
1.59101202282289e+15,-2,-1,-2,-3,-2,-2,-1,2
1.59101202282289e+15,-1,-0,0,0,1,1,1,2
1.59101202282289e+15,0,1,-1,1,0,0,-2,0
1.59101202282289e+15,3,1,-2,0,0,0,-1,1
1.59101202284594e+15,-3,-2,-2,-1,-1,-1,-6,-6
1.59101202284594e+15,2,1,0,1,-1,-1,-1,3
1.59101202284677e+15,-1,-0,0,-1,-1,-1,-1,-1
1.59101202284677e+15,-2,-2,-3,-3,-2,-2,-1,-3
1.5910120228587e+15,-1,-1,0,-2,-1,-1,1,-4
1.5910120228587e+15,-1,-1,-1,-2,-2,-2,-1,-1
1.59101202286668e+15,0,-0,0,0,-2,-2,-1,0
1.59101202286668e+15,-3,-0,-1,0,-1,-1,-1,0
1.59101202288266e+15,0,-1,-1,-1,-1,-1,-2,-3
1.59101202288266e+15,-2,-0,0,1,0,0,0,-3
1.59101202288266e+15,-1,-0,-1,-2,-1,-1,-1,-1
1.59101202288266e+15,2,1,1,0,0,0,0,2
1.59101202290471e+15,-2,-0,0,1,0,0,-2,1
1.59101202290471e+15,-1,-2,0,0,-1,-1,-4,-5
1.59101202290559e+15,-1,1,-3,-2,-2,-2,2,5
1.59101202290559e+15,-2,-1,-2,-2,0,0,2,-1
1.59101202292054e+15,2,-0,-1,0,-2,-2,1,-1
1.59101202292054e+15,-1,-2,-3,-1,-1,-1,-6,-10
1.59101202293462e+15,-1,1,-1,-2,-2,-2,3,7
1.59101202293462e+15,-2,-1,-2,-3,-2,-2,0,-2
1.59101202294257e+15,-2,-0,-1,-1,0,0,1,1
1.59101202294257e+15,1,-1,-3,-1,0,0,-1,-1
1.59101202294348e+15,-4,-1,-2,0,1,1,-2,-4
1.59101202294348e+15,-2,-2,-1,-1,-3,-3,-4,-3
1.59101202296452e+15,-1,-0,2,-2,-1,-1,0,0
1.59101202296452e+15,-1,-0,0,-2,-2,-2,-1,1
1.59101202296542e+15,-2,-1,-1,-2,-2,-2,0,-2
1.59101202296542e+15,-3,-0,-1,2,1,1,1,-1
1.59101202298038e+15,-1,-1,0,-1,-2,-2,-1,-5
1.59101202298038e+15,-2,-1,-1,-1,-1,-1,0,1
1.59101202298641e+15,-3,-2,0,-1,-2,-2,-3,-5
1.59101202298641e+15,-1,-0,-1,-1,-2,-2,-2,-2
1.59101202300232e+15,-1,-0,-1,-1,0,0,0,1
1.59101202300232e+15,-2,1,0,-1,-2,-2,4,7
1.59101202300332e+15,1,-0,-1,-1,-1,-1,-1,-3
1.59101202300332e+15,-2,-2,-1,-2,-2,-2,-5,-4
1.59101202302429e+15,-1,-1,-1,0,-1,-1,-2,-4
1.59101202302429e+15,1,-0,1,0,0,0,-3,-1
1.59101202302526e+15,-2,-0,-2,-1,-1,-1,0,-2
1.59101202302526e+15,-1,-1,0,-2,-1,-1,0,-3
1.59101202304723e+15,0,-1,-3,-2,-4,-4,-1,-1
1.59101202304723e+15,-4,-2,-4,-1,-1,-1,-2,-6
1.59101202305547e+15,2,2,-1,-1,1,1,2,9
1.59101202305547e+15,-1,-0,-2,0,1,1,1,2
1.59101202306416e+15,-1,-2,-1,-2,0,0,-6,-3
1.59101202306416e+15,1,-0,1,-1,-1,-1,0,1
1.59101202306525e+15,-2,-1,-2,0,-1,-1,-4,-7
1.59101202306525e+15,-2,-2,-1,-3,-2,-2,0,1
1.59101202308542e+15,-1,-0,-1,0,-1,-1,0,-2
1.59101202308542e+15,-1,-0,-2,0,-1,-1,2,8
1.59101202308542e+15,-2,-2,0,-1,-3,-3,-3,-3
1.59101202308542e+15,-2,-1,-2,0,-2,-2,-2,0
1.59101202310811e+15,-1,-1,-4,-4,-1,-1,-1,-2
1.59101202310811e+15,-2,-2,-3,-2,-3,-3,-4,-5
1.59101202310811e+15,0,-0,-2,-1,-1,-1,1,0
1.59101202310811e+15,-1,1,-1,-2,0,0,2,0
1.591012023124e+15,-1,-1,-1,0,-2,-2,-4,-4
1.591012023124e+15,-1,-1,-2,2,-3,-3,0,-2
1.5910120231301e+15,-1,-1,1,-1,-1,-1,-4,-3
1.5910120231301e+15,-1,1,-1,-2,0,0,0,3
1.59101202314506e+15,0,-0,0,0,0,0,0,2
1.59101202314506e+15,0,-0,-1,-3,0,0,1,1
1.59101202314593e+15,-2,-1,-3,0,-2,-2,-2,-2
1.59101202314593e+15,-2,-1,-2,-2,0,0,0,-3
1.59101202316691e+15,-1,-0,-3,-1,0,0,0,0
1.59101202316691e+15,-1,1,0,0,1,1,0,2
1.59101202316787e+15,1,-1,-1,-1,-2,-2,-2,-5
1.59101202316787e+15,-1,-1,-1,0,-1,-1,-3,-5
1.59101202318483e+15,-1,-0,-2,0,2,2,0,-4
1.59101202318483e+15,-2,-2,-1,-3,-1,-1,-2,-6
1.59101202318483e+15,-2,-1,-2,1,0,0,-2,-4
1.59101202318483e+15,0,-0,0,-1,0,0,-1,0
1.59101202321344e+15,-2,-1,-1,0,-3,-3,0,-2
1.59101202321344e+15,1,-0,-1,-1,1,1,-2,-1
1.59101202321344e+15,-2,-0,-2,-1,-1,-1,0,2
1.59101202321344e+15,-2,-1,-3,-2,-2,-2,-3,-1
1.59101202322743e+15,0,-0,-2,-2,-1,-1,1,1
1.59101202322743e+15,0,-2,0,-1,-2,-2,-5,-7
1.5910120232284e+15,-1,1,-1,-3,-1,-1,3,8
1.5910120232284e+15,0,-0,1,0,1,1,1,-2
1.5910120232424e+15,-1,-1,0,-2,-2,-2,0,-2
1.5910120232424e+15,-1,1,-1,0,-1,-1,3,3
1.59101202324336e+15,-1,-1,-1,-2,-1,-1,-4,-6
1.59101202324336e+15,2,-1,-2,0,-2,-2,-3,-5
1.5910120232653e+15,-1,2,1,-1,-1,-1,6,6
1.5910120232653e+15,-2,-1,-2,1,-2,-2,0,-2
1.5910120232663e+15,-2,-1,0,0,-1,-1,-1,-3
1.5910120232663e+15,1,-0,-2,0,-2,-2,1,1
1.59101202328728e+15,0,-2,-3,-1,0,0,-4,-4
1.59101202328728e+15,-1,-0,-1,-3,1,1,1,2
1.59101202328824e+15,-1,-0,-1,-3,1,1,-1,-1
1.59101202328824e+15,-1,-0,-2,-1,-2,-2,-2,-1
1.59101202330191e+15,-1,-1,-2,1,0,0,-1,-4
1.59101202330191e+15,-3,-3,0,-1,-3,-3,-6,-11
1.59101202330286e+15,1,1,-2,-1,2,2,5,5
1.59101202330286e+15,-3,-0,-1,1,-2,-2,0,-2
1.59101202332485e+15,0,1,-1,0,-1,-1,2,0
1.59101202332485e+15,0,-1,-2,-2,-3,-3,-2,-1
1.5910120233258e+15,-3,-2,2,-2,-2,-2,-5,-5
1.5910120233258e+15,-2,-1,-1,-1,-3,-3,-1,-1
1.59101202334782e+15,-1,1,0,1,-1,-1,1,2
1.59101202334782e+15,-1,-1,-2,-1,-2,-2,-3,1
1.59101202334782e+15,-2,-1,-3,-1,-1,-1,-4,-4
1.59101202334782e+15,0,-0,-2,-2,-1,-1,1,0
1.59101202336275e+15,-3,-1,-1,-1,-1,-1,-1,-4
1.59101202336275e+15,-5,-2,-2,-2,-1,-1,-1,-3
1.59101202336275e+15,0,-1,0,-2,-3,-3,-1,2
1.59101202336275e+15,-1,-2,-3,-1,-2,-2,-4,-6
1.59101202338481e+15,0,-1,-2,-1,-1,-1,-1,0
1.59101202338481e+15,-2,-0,-1,0,0,0,-1,-1
1.59101202338564e+15,-1,-0,0,1,-2,-2,-1,-1
1.59101202338564e+15,-4,1,1,0,1,1,1,4
1.59101202340758e+15,-3,-1,-1,-2,-2,-2,-2,0
1.59101202340758e+15,0,-0,-1,0,-1,-1,1,1
1.59101202340758e+15,-2,1,0,-2,-1,-1,2,2
1.59101202340758e+15,1,-2,0,-1,0,0,-6,-5
1.59101202342259e+15,0,-0,-2,-1,0,0,-2,-3
1.59101202342259e+15,2,2,0,-1,-1,-1,4,7
1.59101202343771e+15,-1,-1,-2,-1,-1,-1,-2,-6
1.59101202343771e+15,-1,1,0,-2,0,0,2,2
1.59101202344452e+15,0,-0,-2,0,-1,-1,-1,-1
1.59101202344452e+15,-1,-1,-1,-1,-2,-2,-2,-3
1.59101202344548e+15,-2,-2,0,-2,-1,-1,-3,-4
1.59101202344548e+15,-2,-1,-1,-1,-1,-1,-1,-2
1.59101202346742e+15,-1,-1,0,-1,-1,-1,-2,-3
1.59101202346742e+15,-1,-1,-1,-2,-1,-1,-2,-7
1.59101202346842e+15,-2,1,-1,-2,-1,-1,1,5
1.59101202346842e+15,-2,-1,-2,-3,-1,-1,-3,1
1.59101202348239e+15,0,-1,-2,-1,-2,-2,-3,1
1.59101202348239e+15,-7,-0,-1,0,1,1,1,2
1.59101202348338e+15,-1,-1,-1,-2,0,0,-3,-2
1.59101202348338e+15,-1,-1,-1,-2,-1,-1,1,1
1.59101202350504e+15,-3,-1,1,-1,-2,-2,-3,-4
1.59101202350504e+15,0,-0,-2,-3,-2,-2,1,3
1.59101202350585e+15,-2,-1,-1,-1,-2,-2,-3,-2
1.59101202350585e+15,-1,-0,-1,-1,0,0,1,0
1.59101202352781e+15,1,-0,-1,0,0,0,-3,1
1.59101202352781e+15,-1,-2,-2,0,0,0,-5,-2
1.59101202352781e+15,-3,-1,-1,-1,-1,-1,0,-2
1.59101202352781e+15,-1,-0,-2,1,-2,-2,1,-2
1.59101202354274e+15,-2,-1,-2,-1,-1,-1,1,-2
1.59101202354274e+15,0,-0,-3,-3,-2,-2,0,5
1.59101202354274e+15,-1,-2,-3,-1,-4,-4,-2,-3
1.59101202354274e+15,0,-1,0,-3,-1,-1,-3,-6
1.59101202356492e+15,0,-1,-2,-2,0,0,0,-1
1.59101202356492e+15,-4,-3,-1,-2,-1,-1,-6,-8
1.59101202356569e+15,-2,-0,-2,1,-1,-1,0,-1
1.59101202356569e+15,0,-0,-2,-1,-2,-2,2,0
1.5910120235877e+15,-1,-2,0,-2,0,0,-6,-7
1.5910120235877e+15,1,1,-2,-1,1,1,4,5
1.5910120235877e+15,-1,-0,-2,0,-1,-1,-2,1
1.5910120235877e+15,-2,-1,0,1,-1,-1,-7,-4
1.5910120236012e+15,1,2,-2,0,0,0,5,7
1.5910120236012e+15,1,-1,-2,-1,-2,-2,-4,-2
1.59101202361014e+15,-2,-4,-2,-5,-1,-1,-6,-9
1.59101202361014e+15,0,2,-2,0,-2,-2,3,8
1.59101202362515e+15,1,-1,-1,-1,-2,-2,-2,-2
1.59101202362515e+15,2,2,-2,0,0,0,1,2
1.59101202362515e+15,-1,-1,-1,-1,0,0,-4,-5
1.59101202362515e+15,0,-0,0,-1,1,1,-1,-2
1.59101202364702e+15,-1,-1,-2,-3,-1,-1,0,0
1.59101202364702e+15,-2,-2,-4,-3,-3,-3,0,1
1.59101202364801e+15,-1,-0,0,0,0,0,-3,-2
1.59101202364801e+15,-2,-2,-1,-1,-2,-2,-2,-8
1.59101202366221e+15,1,2,-1,1,0,0,3,5
1.59101202366221e+15,-2,-3,-1,-2,-1,-1,-5,-5
1.59101202367099e+15,-2,-4,-4,-3,-3,-3,-6,-3
1.59101202367099e+15,-2,-1,-3,-2,-2,-2,-1,-3
1.59101202368492e+15,-2,-1,1,-1,-2,-2,-1,-3
1.59101202368492e+15,0,-2,-1,-1,0,0,-5,-5
1.59101202368591e+15,1,-1,0,-2,0,0,-1,-4
1.59101202368591e+15,-2,-0,-3,0,-2,-2,0,6
1.59101202370785e+15,0,-1,-2,-2,-1,-1,-2,-2
1.59101202370785e+15,-5,-0,2,-2,-1,-1,1,0
1.59101202370785e+15,0,-0,-1,-1,0,0,-1,0
1.59101202370785e+15,0,-1,0,-2,1,1,-3,-2
1.59101202372184e+15,-3,-1,0,-1,0,0,-2,-5
1.59101202372184e+15,2,1,-1,0,0,0,-1,2
1.59101202373082e+15,-1,-0,-1,0,-1,-1,2,-1
1.59101202373082e+15,-1,-1,0,-1,-2,-2,-4,1
1.59101202374575e+15,0,-1,0,0,-3,-3,-2,-1
1.59101202374575e+15,2,-0,-1,-2,0,0,0,1
1.59101202375277e+15,-1,-1,0,-1,-2,-2,0,1
1.59101202375277e+15,0,-0,-1,-2,-1,-1,1,1
1.59101202376769e+15,0,-0,-2,-3,0,0,0,1
1.59101202376769e+15,-2,-2,0,-1,0,0,-6,-9
1.59101202376869e+15,1,3,-1,0,-1,-1,9,12
1.59101202376869e+15,-1,1,0,1,1,1,0,-3
1.59101202378186e+15,1,-0,-1,-2,-1,-1,-2,-2
1.59101202378186e+15,-1,-0,-1,0,0,0,0,-2
1.59101202378982e+15,0,-1,0,-2,0,0,-1,-1
1.59101202378982e+15,0,-1,-2,0,-1,-1,-2,-3
1.59101202380485e+15,-1,-0,-1,0,-2,-2,1,0
1.59101202380485e+15,-1,-0,1,-1,-1,-1,-1,-3
1.59101202380559e+15,-2,1,-1,-1,0,0,2,1
1.59101202380559e+15,2,-2,-1,-2,-5,-5,-7,-5
1.59101202382758e+15,0,-1,-3,-1,-1,-1,-3,-1
1.59101202382758e+15,-3,-0,-3,-1,1,1,0,1
1.59101202382853e+15,0,-0,0,0,-2,-2,-2,-4
1.59101202382853e+15,0,-0,0,1,-1,-1,2,-2
1.59101202384349e+15,-1,2,-2,0,-1,-1,3,5
1.59101202384349e+15,-1,-1,-2,1,-1,-1,-2,-2
1.59101202384949e+15,0,-1,-3,-2,-3,-3,-3,-1
1.59101202384949e+15,-4,-2,-2,-2,0,0,-1,-4
1.59101202386543e+15,-3,-1,0,0,-1,-1,-3,-3
1.59101202386543e+15,-2,-0,0,-1,-2,-2,-1,2
1.59101202387241e+15,-2,-1,-2,-1,-2,-2,-4,-3
1.59101202387241e+15,-1,-0,-1,-2,0,0,1,0
1.59101202388742e+15,0,1,0,0,0,0,1,1
1.59101202388742e+15,1,-1,0,-1,-1,-1,-4,-6
1.59101202389435e+15,-1,1,-1,-2,0,0,2,3
1.59101202389435e+15,-1,-0,1,-1,-2,-2,0,1
1.59101202390147e+15,-1,-0,0,-1,1,1,-1,-3
1.59101202390147e+15,-1,1,1,0,-1,-1,2,5
1.59101202390931e+15,-3,-2,-2,-1,0,0,-5,-9
1.59101202390931e+15,-1,-0,-1,-1,0,0,1,0
1.59101202392551e+15,-1,-1,-1,-3,-1,-1,-2,-2
1.59101202392551e+15,0,-0,-3,-1,-1,-1,1,0
1.59101202392551e+15,-3,-2,0,-2,-1,-1,-4,-4
1.59101202392551e+15,-2,-2,-3,-1,-4,-4,-3,-2
1.59101202394747e+15,-1,-0,-1,0,-1,-1,1,-1
1.59101202394747e+15,-1,-0,-1,-2,-1,-1,0,1
1.59101202394821e+15,-1,-1,-2,-3,1,1,-2,-1
1.59101202394821e+15,-1,-2,-3,-2,-3,-3,-5,-1
1.59101202397015e+15,-1,-0,-1,-1,0,0,2,-2
1.59101202397015e+15,-2,-1,-1,1,-2,-2,-4,-5
1.59101202397114e+15,0,-0,-3,-2,-1,-1,3,0
1.59101202397114e+15,-2,1,-2,-1,0,0,1,2
1.59101202398511e+15,0,-2,-1,-1,-3,-3,-3,-4
1.59101202398511e+15,-2,-1,-2,-1,0,0,0,-1
1.59101202398511e+15,-2,-3,-1,-2,-3,-3,-5,-9
1.59101202398511e+15,0,1,2,-3,2,2,2,2
1.59101202401625e+15,-1,-1,-2,-2,-1,-1,1,-1
1.59101202401625e+15,0,-0,-2,-1,-2,-2,-1,-1
1.59101202401703e+15,1,-1,-1,-2,-2,-2,-2,-1
1.59101202401703e+15,-2,-0,-2,0,0,0,-1,-1
1.59101202403797e+15,-1,-0,0,0,-2,-2,0,1
1.59101202403797e+15,0,1,-2,-1,-1,-1,1,4
1.59101202403896e+15,1,1,-1,-2,0,0,2,4
1.59101202403896e+15,-3,-2,-2,-3,-2,-2,-5,-3
1.59101202404495e+15,1,-1,-2,-2,-2,-2,-3,0
1.59101202404495e+15,-1,-0,-1,-3,-2,-2,3,2
1.59101202404594e+15,-2,-1,0,0,-1,-1,-1,-1
1.59101202404594e+15,0,-0,0,0,-2,-2,0,-3
1.59101202406889e+15,-3,-1,-2,-1,0,0,-2,0
1.59101202406889e+15,-1,-1,-2,-3,-1,-1,0,-1
1.59101202406988e+15,2,-0,-3,0,0,0,-1,0
1.59101202406988e+15,-4,-2,-1,-2,-3,-3,-2,-1
1.59101202408988e+15,0,1,-1,0,0,0,-1,2
1.59101202408988e+15,1,-0,1,-1,-1,-1,-1,-4
1.59101202409783e+15,-1,-1,0,-2,-2,-2,-2,-3
1.59101202409783e+15,-1,-1,-1,-1,-1,-1,-2,-2
1.59101202410484e+15,0,-1,0,-2,0,0,-5,-4
1.59101202410484e+15,-2,-0,-2,0,0,0,0,2
1.59101202410579e+15,-3,-2,-2,0,-1,-1,-2,-6
1.59101202410579e+15,-2,-0,-2,-2,-1,-1,1,2
1.59101202413577e+15,-2,-0,0,-1,-1,-1,0,4
1.59101202413577e+15,-2,-1,-1,-1,0,0,-5,-1
1.5910120241367e+15,1,-0,0,-2,0,0,0,1
1.5910120241367e+15,-2,1,-2,0,1,1,4,2
1.59101202415073e+15,0,-0,-1,-1,-1,-1,-2,1
1.59101202415073e+15,-2,-3,-1,-2,1,1,-5,-12
1.59101202415166e+15,0,2,0,-1,2,2,5,8
1.59101202415166e+15,1,-0,-1,1,0,0,-2,-3
1.59101202416566e+15,-3,-1,0,-1,-2,-2,-1,-2
1.59101202416566e+15,1,-0,-3,-1,-2,-2,1,2
1.59101202417268e+15,-4,-2,-1,-2,-1,-1,-1,-4
1.59101202417268e+15,-1,-1,0,1,-2,-2,-3,-5
1.59101202418759e+15,-1,-0,-1,-2,-2,-2,1,1
1.59101202418759e+15,-1,-1,-1,-3,-2,-2,-1,-1
1.59101202418859e+15,-4,-1,-3,-1,0,0,-2,1
1.59101202418859e+15,-2,-0,-1,-1,1,1,-2,-2
1.5910120242109e+15,-1,-0,-1,1,0,0,-1,-3
1.5910120242109e+15,1,-0,0,-1,-1,-1,0,2
1.5910120242109e+15,-2,-0,0,0,-1,-1,-1,-1
1.5910120242109e+15,-2,-2,-1,-1,-1,-1,-4,-7
1.59101202422513e+15,-1,-1,-3,-2,-1,-1,0,-3
1.59101202422513e+15,-5,-1,-1,-2,-1,-1,-1,-3
1.59101202422586e+15,-1,-0,-2,2,-2,-2,0,5
1.59101202422586e+15,-3,-0,1,0,0,0,1,3
