TimeStamp,emg1,emg2,emg3,emg4,emg5,emg6,emg7,emg8
1.59101212835884e+15,0,-1,-2,-1,0,0,0,-2
1.59101212835884e+15,-1,-1,-1,-1,1,1,-6,0
1.59101212835986e+15,0,-1,-3,-1,-2,-2,1,2
1.59101212835986e+15,0,-0,-1,1,-1,-1,-1,-1
1.59101212835986e+15,-1,-0,1,-1,-1,-1,1,-1
1.59101212835986e+15,0,-0,-2,0,0,0,0,-2
1.59101212836384e+15,-3,-2,-1,-4,-1,-1,-3,-2
1.59101212836384e+15,-2,-2,-5,-2,-1,-1,-2,-1
1.59101212837181e+15,-1,-0,-1,-2,-1,-1,1,0
1.59101212837181e+15,-1,-0,-1,0,-1,-1,1,-1
1.59101212837879e+15,-2,-2,-3,-1,-1,-1,-5,-3
1.59101212837879e+15,-2,-0,-1,-1,0,0,1,-3
1.59101212839495e+15,-1,-1,0,-1,0,0,-4,-5
1.59101212839495e+15,0,1,0,-1,-1,-1,5,3
1.59101212839978e+15,-1,-0,-1,-1,0,0,0,2
1.59101212839978e+15,-2,-2,-1,-1,-4,-4,-3,-2
1.59101212841569e+15,-1,-1,-2,1,-3,-3,-2,0
1.59101212841569e+15,-4,-0,1,1,0,0,-2,-1
1.59101212842367e+15,-1,-0,0,-2,-1,-1,-2,0
1.59101212842367e+15,-3,-1,-1,-3,-1,-1,-1,-1
1.59101212843069e+15,-1,1,2,5,0,0,0,-4
1.59101212843069e+15,1,-1,-4,-5,-2,-2,-1,-1
1.59101212844561e+15,-2,-2,0,-2,-2,-2,-1,-5
1.59101212844561e+15,0,-0,0,-4,-2,-2,1,0
1.59101212849351e+15,-1,1,1,0,1,1,0,1
1.59101212849351e+15,-3,-1,1,-2,0,0,-3,-3
1.59101212849448e+15,-1,-1,-2,-2,-3,-3,0,-1
1.59101212849448e+15,2,-0,-2,1,-1,-1,0,0
1.59101212849548e+15,0,-0,-2,-1,-1,-1,-1,0
1.59101212849548e+15,-1,-2,-2,-1,-1,-1,-3,-2
1.59101212849968e+15,-2,-3,-1,-2,-2,-2,-4,-5
1.59101212849968e+15,0,1,-1,-2,0,0,1,0
1.59101212850146e+15,0,-0,-3,-1,-2,-2,-2,0
1.59101212850146e+15,-2,-0,-1,-1,0,0,1,1
1.59101212850545e+15,-3,-0,0,-1,-1,-1,0,-1
1.59101212850545e+15,-1,-0,0,1,-2,-2,1,-1
1.59101212851443e+15,0,-0,-1,-2,0,0,-3,-1
1.59101212851443e+15,-1,-1,-2,1,-1,-1,-3,-1
1.59101212852861e+15,-2,-1,-2,0,-2,-2,-1,-1
1.59101212852861e+15,-1,1,0,0,0,0,4,2
1.59101212853565e+15,1,-0,0,0,-1,-1,-1,-1
1.59101212853565e+15,-1,-0,0,-1,-1,-1,-2,-1
1.59101212855055e+15,-1,-0,0,0,0,0,-1,-1
1.59101212855055e+15,-1,-1,-4,-5,0,0,-2,-4
1.59101212857431e+15,-1,-1,-2,-3,-1,-1,-1,-1
1.59101212857431e+15,-2,-1,-3,-2,-2,-2,1,0
1.59101212857527e+15,-1,1,0,1,-1,-1,0,-1
1.59101212857527e+15,-1,-0,0,-1,-1,-1,1,-1
1.59101212857726e+15,-2,-2,-2,-2,-2,-2,-3,-2
1.59101212857726e+15,-2,-0,0,-1,-1,-1,0,-2
1.59101212859621e+15,0,-0,-1,-1,0,0,2,-1
1.59101212859621e+15,-1,-1,0,-1,0,0,-3,-3
1.5910121285982e+15,0,1,0,0,1,1,3,1
1.5910121285982e+15,-1,-2,-1,-1,-3,-3,-5,-1
1.59101212861033e+15,-1,-3,-4,-6,-3,-3,-1,-2
1.59101212861033e+15,0,-1,-1,1,-2,-2,-2,0
1.59101212861916e+15,-1,-0,0,1,1,1,-1,0
1.59101212861916e+15,0,-0,-1,-3,-1,-1,2,-1
1.59101212863416e+15,-2,-1,-2,-1,-1,-1,-3,-2
1.59101212863416e+15,0,2,-1,1,1,1,4,2
1.59101212864028e+15,-2,-0,0,2,-2,-2,0,-2
1.59101212864028e+15,-2,-1,-1,-4,-1,-1,0,-1
1.5910121286561e+15,-3,-1,-2,-3,1,1,-1,0
1.5910121286561e+15,-4,-2,-1,-1,-1,-1,-3,-3
1.59101212865805e+15,0,-0,-1,-1,0,0,0,2
1.59101212865805e+15,0,-0,-1,0,-2,-2,-2,-1
1.59101212867024e+15,1,1,1,2,1,1,-1,-2
1.59101212867024e+15,1,-1,-1,-2,-2,-2,-3,-2
1.59101212868498e+15,-4,-0,-1,-1,-1,-1,1,-2
1.59101212868498e+15,-1,-0,-1,1,-2,-2,-1,0
1.59101212869423e+15,-1,-0,0,-1,0,0,1,-2
1.59101212869423e+15,0,-1,-2,-2,-2,-2,-1,-1
1.59101212869565e+15,1,-1,-2,0,-2,-2,-2,-1
1.59101212869565e+15,-2,-1,-2,-4,1,1,0,-1
1.59101212871652e+15,-1,-1,-1,-3,-1,-1,0,0
1.59101212871652e+15,-1,-0,0,-1,1,1,-4,-1
1.59101212871752e+15,-2,-1,-2,-2,0,0,-3,-3
1.59101212871752e+15,-2,-0,-2,-2,-2,-2,0,-2
1.59101212872953e+15,0,-1,-2,-1,-1,-1,-1,-1
1.59101212872953e+15,-2,-1,-2,0,-2,-2,-3,-3
1.59101212873855e+15,0,1,0,-2,-1,-1,3,2
1.59101212873855e+15,1,1,-2,1,0,0,2,2
1.59101212875356e+15,-3,-1,0,0,-2,-2,-1,-2
1.59101212875356e+15,-2,-0,-1,-2,-2,-2,-1,0
1.59101212875542e+15,-2,-0,-1,-3,1,1,-1,-1
1.59101212875542e+15,-2,-1,-2,0,0,0,-2,-3
1.59101212877636e+15,-1,-1,-1,-2,-3,-3,-3,-3
1.59101212877636e+15,-2,-1,-1,-2,-2,-2,-4,-2
1.59101212877847e+15,-1,-0,-1,-1,-2,-2,-2,-2
1.59101212877847e+15,-2,-1,1,-1,-2,-2,-2,-2
1.59101212879049e+15,1,1,-1,1,-1,-1,2,1
1.59101212879049e+15,-1,-0,0,1,-1,-1,-1,0
1.59101212879942e+15,-2,-1,-2,-4,-2,-2,0,2
1.59101212879942e+15,1,-0,-3,2,-1,-1,0,-3
1.59101212881351e+15,0,-1,-3,-3,-2,-2,-2,-3
1.59101212881351e+15,0,-0,-1,-2,-1,-1,0,-1
1.59101212882055e+15,-2,-2,-1,-4,-2,-2,-3,-1
1.59101212882055e+15,-1,-1,-2,-3,-1,-1,-2,-1
1.59101212883646e+15,0,1,-1,0,0,0,1,3
1.59101212883646e+15,-1,-0,0,-1,-1,-1,-2,0
1.59101212883844e+15,-4,-1,-1,-1,-1,-1,-2,-2
1.59101212883844e+15,-2,-2,0,0,-1,-1,-7,-5
1.59101212885041e+15,-1,2,-1,1,-1,-1,7,2
1.59101212885041e+15,-1,-1,-1,-3,1,1,0,-1
1.59101212885939e+15,-2,-1,-2,-1,0,0,-3,-4
1.59101212885939e+15,-3,-1,-2,0,0,0,-4,-1
1.59101212887457e+15,0,-1,-1,0,-1,-1,-3,-2
1.59101212887457e+15,-2,-1,-2,-1,-1,-1,-1,0
1.59101212888039e+15,-2,-1,-1,-1,-4,-4,-2,-1
1.59101212888039e+15,0,-0,0,-1,0,0,1,0
1.59101212889629e+15,0,-1,-1,-3,-2,-2,-2,-1
1.59101212889629e+15,-1,-0,0,0,-2,-2,0,1
1.59101212889828e+15,-2,-1,-1,-1,-1,-1,-1,-2
1.59101212889828e+15,-1,-0,1,-2,-1,-1,0,0
1.59101212891922e+15,-3,-1,-1,0,-1,-1,-2,-3
1.59101212891922e+15,-1,-1,-1,0,-1,-1,-2,-2
1.5910121289252e+15,-1,-1,0,-5,-1,-1,0,-2
1.5910121289252e+15,-2,-2,-4,-5,-2,-2,-2,-3
1.59101212893418e+15,-1,-0,0,-1,-2,-2,-1,1
1.59101212893418e+15,-3,-1,-1,-3,-1,-1,0,-2
1.59101212893518e+15,-1,-1,2,4,-4,-4,-6,-4
1.59101212893518e+15,0,-0,0,-1,-2,-2,2,1
1.59101212895617e+15,-1,-1,0,-3,-1,-1,-5,-2
1.59101212895617e+15,-1,-0,-3,2,-1,-1,-1,2
1.5910121289576e+15,1,-1,-2,-3,0,0,-1,-1
1.5910121289576e+15,1,1,2,0,0,0,-1,-1
1.59101212898758e+15,-1,-0,-2,0,0,0,1,2
1.59101212898758e+15,-3,-1,-2,-2,0,0,-4,-2
1.59101212898853e+15,-1,-2,-3,-4,-2,-2,-2,0
1.59101212898853e+15,-1,-1,-1,-3,-2,-2,0,-2
1.59101212900149e+15,-1,1,-1,1,1,1,-1,-1
1.59101212900149e+15,-3,-2,-2,-4,-3,-3,1,-3
1.59101212900249e+15,-3,-1,-1,-1,0,0,-2,-2
1.59101212900249e+15,-5,-0,-1,1,-1,-1,2,-1
1.59101212901545e+15,-1,-0,-1,1,-1,-1,-2,-2
1.59101212901545e+15,0,-0,-4,-2,1,1,1,1
1.59101212902443e+15,-3,-2,-2,0,-1,-1,-2,-1
1.59101212902443e+15,0,-1,-3,-2,-1,-1,-1,1
1.59101212905562e+15,1,-0,-2,-3,-2,-2,0,-1
1.59101212905562e+15,0,-1,-1,-2,0,0,-2,0
1.59101212905662e+15,0,-0,-1,-1,-1,-1,-1,-1
1.59101212905662e+15,-1,-1,-1,-1,0,0,-3,-3
1.59101212905762e+15,-2,-0,-1,0,0,0,-3,0
1.59101212905762e+15,-2,2,1,-1,-1,-1,6,3
1.59101212906161e+15,-2,-0,-2,-2,-1,-1,0,1
1.59101212906161e+15,-1,-1,-2,0,-4,-4,-2,0
1.59101212907664e+15,-1,-1,-2,-1,-1,-1,-1,-1
1.59101212907664e+15,-1,-2,1,0,-2,-2,-5,-3
1.59101212907856e+15,-1,-0,0,0,0,0,0,-1
1.59101212907856e+15,-1,-1,-1,-2,-1,-1,0,0
1.59101212909851e+15,0,-0,1,-1,0,0,-2,-2
1.59101212909851e+15,0,-0,-1,-1,-1,-1,-1,1
1.59101212910051e+15,1,-0,-3,-2,-1,-1,-1,-2
1.59101212910051e+15,-3,-0,1,0,1,1,1,-2
1.59101212911347e+15,-1,-0,-1,-2,0,0,0,-1
1.59101212911347e+15,0,1,0,-1,2,2,0,-2
1.59101212912744e+15,-1,-1,-3,-2,0,0,-2,-1
1.59101212912744e+15,1,-1,-4,-2,0,0,-1,0
1.59101212913641e+15,0,-0,-3,0,-2,-2,2,2
1.59101212913641e+15,-1,-1,-1,1,-2,-2,-4,-2
1.59101212913746e+15,-2,-0,0,-1,-2,-2,0,-2
1.59101212913746e+15,-2,-2,-2,-2,-3,-3,-2,-3
1.59101212915935e+15,-1,-0,-2,-1,-1,-1,-1,-1
1.59101212915935e+15,1,-2,-3,-4,-1,-1,-2,-2
1.59101212916034e+15,-2,-0,-1,-2,-2,-2,0,0
1.59101212916034e+15,0,-1,-1,-2,0,0,0,-1
1.59101212917335e+15,-2,-0,1,-1,-2,-2,-3,0
1.59101212917335e+15,-3,-1,-1,-1,0,0,-1,0
1.5910121291813e+15,-2,-0,-1,-1,-2,-2,1,-2
1.5910121291813e+15,-1,-1,-1,2,-2,-2,-1,-2
1.59101212919625e+15,-1,-1,-3,-5,-1,-1,-2,-2
1.59101212919625e+15,0,-1,-2,1,-2,-2,-3,-4
1.59101212921025e+15,0,-0,-3,-4,0,0,1,0
1.59101212921025e+15,-1,-1,0,-1,-3,-3,-1,0
1.59101212922618e+15,-1,-1,-2,0,-2,-2,-1,0
1.59101212922618e+15,-2,-0,0,-3,-2,-2,-2,0
1.5910121292282e+15,-2,-1,-3,2,-1,-1,-2,-3
1.5910121292282e+15,-1,-0,0,0,0,0,0,-2
1.59101212923319e+15,0,-0,-1,-1,0,0,-2,-2
1.59101212923319e+15,-1,-0,-1,-2,-1,-1,-2,-2
1.59101212924016e+15,0,1,-1,2,-1,-1,3,2
1.59101212924016e+15,-1,1,0,-4,0,0,0,1
1.59101212925614e+15,-2,-1,0,0,-1,-1,-2,-1
1.59101212925614e+15,0,-0,-1,0,-1,-1,1,1
1.59101212925816e+15,-1,-1,1,-1,-1,-1,-2,-2
1.59101212925816e+15,0,1,-1,0,-2,-2,-2,1
1.59101212927906e+15,-2,-1,-1,-2,0,0,0,-2
1.59101212927906e+15,1,-0,1,0,0,0,0,-2
1.59101212928006e+15,-3,-1,-2,-1,-1,-1,0,-3
1.59101212928006e+15,-1,-1,-2,-3,-3,-3,-4,-2
1.59101212929311e+15,0,-0,-1,0,-2,-2,1,-2
1.59101212929311e+15,-3,-1,-2,-2,-1,-1,-5,0
1.59101212930009e+15,0,-0,-1,-2,-2,-2,0,1
1.59101212930009e+15,-3,-1,-1,-1,1,1,-2,-3
1.59101212931602e+15,-1,-0,-2,-1,0,0,-1,-1
1.59101212931602e+15,-1,-0,-2,0,0,0,2,1
1.59101212932394e+15,1,-0,0,-4,-1,-1,1,0
1.59101212932394e+15,-1,-0,-2,0,-1,-1,0,-1
1.59101212933895e+15,-2,-1,1,-2,0,0,-6,-4
1.59101212933895e+15,-1,1,1,1,0,0,5,3
1.5910121293409e+15,-1,-1,0,0,-1,-1,-3,-4
1.5910121293409e+15,0,-0,-2,-2,1,1,3,-1
1.59101212935286e+15,1,-0,1,0,-3,-3,-2,-1
1.59101212935286e+15,-1,-1,0,-1,-2,-2,-2,0
1.59101212936006e+15,-1,-2,-5,-5,0,0,-3,-2
1.59101212936006e+15,-1,-2,-2,-3,-3,-3,-1,0
1.59101212937687e+15,-1,-0,-1,-1,0,0,-1,-1
1.59101212937687e+15,-1,-0,0,2,-1,-1,-2,-3
1.59101212937787e+15,-1,-1,-2,-2,1,1,-1,-1
1.59101212937787e+15,0,-0,-1,-1,-1,-1,0,-2
1.59101212940003e+15,-2,-1,-4,-3,-1,-1,-1,0
1.59101212940003e+15,-1,-1,0,-2,-1,-1,-1,-2
1.59101212940181e+15,-3,-1,0,0,-2,-2,0,-1
1.59101212940181e+15,-1,-0,-1,0,0,0,0,-1
1.59101212941279e+15,0,-0,0,0,0,0,0,-1
1.59101212941279e+15,-2,-1,-4,-3,-3,-3,0,-1
1.59101212942194e+15,-2,-0,1,0,-1,-1,-2,-1
1.59101212942194e+15,-1,-1,-2,-1,-2,-2,-2,-1
1.59101212943672e+15,-1,-1,-1,0,-1,-1,-3,-1
1.59101212943672e+15,-1,-1,-1,-3,-1,-1,0,-2
1.59101212943771e+15,0,-3,-2,-2,-4,-4,-7,-8
1.59101212943771e+15,0,1,0,-1,0,0,3,1
1.59101212945866e+15,-3,-1,-1,-1,0,0,-1,-1
1.59101212945866e+15,0,-1,-2,0,-2,-2,-3,-1
1.59101212946065e+15,-1,1,-1,-1,2,2,2,2
1.59101212946065e+15,-1,-0,0,-2,0,0,-2,-2
1.5910121294816e+15,0,1,-2,-2,-2,-2,4,3
1.5910121294816e+15,-1,-1,-3,0,0,0,-3,-1
1.59101212948259e+15,-2,-0,2,0,-1,-1,-1,0
1.59101212948259e+15,2,-0,-1,0,0,0,-3,-3
1.59101212951156e+15,-1,-0,0,1,-1,-1,1,0
1.59101212951156e+15,-4,-2,-3,-5,-2,-2,-3,-3
1.59101212951251e+15,0,-0,-2,-2,1,1,0,0
1.59101212951251e+15,-1,-1,1,-1,-1,-1,0,-3
1.59101212951849e+15,-1,-1,-2,-1,-2,-2,-1,-3
1.59101212951849e+15,-2,-0,0,-1,0,0,0,1
1.59101212952559e+15,-1,1,0,1,-2,-2,-1,1
1.59101212952559e+15,-2,-0,-2,-2,0,0,-3,-1
1.59101212954246e+15,1,-0,0,-1,-1,-1,0,0
1.59101212954246e+15,-1,-1,-2,-1,-2,-2,-2,-1
1.59101212954742e+15,0,-0,-1,-1,0,0,0,-2
1.59101212954742e+15,-3,1,2,4,1,1,0,-1
1.59101212956421e+15,-2,-1,-1,-2,-2,-2,-3,-1
1.59101212956421e+15,-2,-1,-2,-4,-2,-2,-1,0
1.59101212956532e+15,-2,-0,1,0,-1,-1,-1,-1
1.59101212956532e+15,-2,-0,-2,-1,-1,-1,0,1
1.5910121295872e+15,-5,-1,-2,-3,1,1,-1,0
1.5910121295872e+15,0,-0,-2,0,0,0,0,0
1.59101212958914e+15,-2,-1,-1,-2,-1,-1,-2,0
1.59101212958914e+15,0,-1,-1,-2,-2,-2,-2,0
1.59101212960232e+15,-1,-0,-3,-1,-2,-2,1,0
1.59101212960232e+15,0,-0,-2,-1,-1,-1,1,-2
1.59101212960812e+15,-1,1,2,2,0,0,0,-2
1.59101212960812e+15,0,-2,-5,-5,-3,-3,0,-2
1.59101212962405e+15,0,-0,1,-1,-2,-2,-2,-1
1.59101212962405e+15,-1,-1,-1,-2,-2,-2,-2,-3
1.59101212962505e+15,0,-0,-2,3,-3,-3,0,-1
1.59101212962505e+15,1,-0,0,1,-1,-1,-1,-1
1.59101212963805e+15,-1,-1,-4,-5,0,0,-1,0
1.59101212963805e+15,-3,-2,-3,-2,-1,-1,-3,-1
1.59101212964508e+15,-2,-0,-1,-1,0,0,1,1
1.59101212964508e+15,-1,-0,0,0,-2,-2,0,-1
1.59101212966103e+15,1,1,-1,0,0,0,0,-3
1.59101212966103e+15,-3,-1,-1,-3,-1,-1,-3,-1
1.59101212966295e+15,-1,-1,-1,-2,-1,-1,0,-1
1.59101212966295e+15,1,-0,0,-2,-1,-1,0,-1
1.59101212968389e+15,-1,-1,1,-1,0,0,-3,-3
1.59101212968389e+15,-2,-1,-1,-1,-1,-1,0,-2
1.59101212968589e+15,0,-1,-1,-3,-2,-2,-1,1
1.59101212968589e+15,0,-0,2,-1,0,0,-2,0
1.59101212969819e+15,-1,-2,-1,-2,-3,-3,-4,-1
1.59101212969819e+15,-1,-0,-2,-1,-2,-2,1,0
1.59101212970516e+15,1,-0,0,-1,-1,-1,-2,-1
1.59101212970516e+15,-3,-0,-2,1,-1,-1,0,-2
1.59101212972186e+15,-1,-1,-2,-1,-3,-3,-2,-1
1.59101212972186e+15,-1,-0,-2,-1,-1,-1,1,-1
1.59101212972279e+15,-1,-1,-2,0,-1,-1,0,-3
1.59101212972279e+15,0,1,-1,-1,2,2,4,0
1.59101212974373e+15,-1,-1,-1,1,-2,-2,-2,0
1.59101212974373e+15,-2,-2,-2,-1,-3,-3,-2,-1
1.59101212974573e+15,-1,-0,0,2,-1,-1,-3,0
1.59101212974573e+15,-1,-1,-3,-5,-1,-1,-3,-1
1.59101212975969e+15,-3,-0,-2,-2,-1,-1,-1,0
1.59101212975969e+15,-2,-1,0,0,-1,-1,-1,-2
1.59101212976468e+15,-2,-2,-2,-1,-2,-2,-6,-3
1.59101212976468e+15,-2,-0,0,0,0,0,-2,-1
1.59101212978263e+15,0,-1,-2,0,-1,-1,2,0
1.59101212978263e+15,-4,-1,-1,-3,-2,-2,-2,-1
1.59101212978765e+15,-2,-0,-3,-1,-1,-1,2,-3
1.59101212978765e+15,-3,-0,-1,-1,-1,-1,-1,-1
1.59101212980357e+15,-3,-1,-1,1,-1,-1,-2,0
1.59101212980357e+15,1,-0,-1,-1,0,0,-2,-1
1.59101212980557e+15,1,-1,-2,-4,0,0,-2,1
1.59101212980557e+15,2,-0,-1,0,-1,-1,-2,-1
1.59101212981853e+15,-1,-1,-4,-3,-1,-1,1,-1
1.59101212981853e+15,-2,-1,-1,1,-2,-2,-2,-1
1.59101212982452e+15,-2,-0,0,-3,-1,-1,0,0
1.59101212982452e+15,-1,-1,1,-1,-3,-3,-4,-1
1.59101212984163e+15,-1,-0,-3,-4,-1,-1,3,1
1.59101212984163e+15,1,1,-3,0,0,0,-1,0
1.59101212984745e+15,-1,-1,-3,-3,1,1,1,-1
1.59101212984745e+15,0,-0,0,3,-3,-3,-3,-2
1.59101212986341e+15,-2,-1,0,0,-2,-2,-3,-3
1.59101212986341e+15,-1,1,1,1,-2,-2,1,1
1.59101212986541e+15,0,-0,-2,-4,-2,-2,0,0
1.59101212986541e+15,-1,-1,-1,-2,1,1,-2,0
1.59101212987737e+15,-1,-1,-1,1,0,0,-4,-1
1.59101212987737e+15,-1,-1,-1,-2,0,0,1,-3
1.59101212988635e+15,-3,-1,-2,2,-1,-1,-1,-2
1.59101212988635e+15,-1,-1,-3,1,0,0,-1,-2
1.59101212990231e+15,-3,-1,2,-3,-1,-1,-1,-2
1.59101212990231e+15,-2,-0,-1,-1,-1,-1,-1,0
1.59101212990729e+15,-4,-2,0,-3,-2,-2,-2,-1
1.59101212990729e+15,-3,-1,-3,-2,-1,-1,-1,1
1.59101212992425e+15,-1,-0,1,-1,1,1,0,-1
1.59101212992425e+15,-2,-1,-1,-4,0,0,0,-1
1.59101212992624e+15,0,-2,-2,-3,-2,-2,-5,-4
1.59101212992624e+15,0,1,-2,-1,-2,-2,4,3
1.59101212993722e+15,1,1,-1,1,-1,-1,2,2
1.59101212993722e+15,-1,-1,-1,-1,-1,-1,-5,1
1.59101212994619e+15,0,-0,0,-3,-1,-1,0,-1
1.59101212994619e+15,0,-1,-2,-2,-1,-1,-1,-3
1.59101212996131e+15,-1,-1,-2,0,-2,-2,-3,-2
1.59101212996131e+15,-2,-1,-2,1,-1,-1,-2,-3
1.59101212996314e+15,0,-0,-2,-1,-2,-2,0,1
1.59101212996314e+15,-1,-1,0,-4,-2,-2,-1,-3
1.59101212998409e+15,0,-0,0,-1,0,0,1,-1
1.59101212998409e+15,-3,-1,-1,-2,-2,-2,-2,-2
1.59101212998511e+15,-1,-2,0,-2,-2,-2,-2,-2
1.59101212998511e+15,0,1,0,2,0,0,0,1
1.59101212999708e+15,-1,-1,-3,-2,-2,-2,-4,-2
1.59101212999708e+15,0,-0,0,-2,-1,-1,1,0
1.59101213000603e+15,-1,-1,0,-1,-2,-2,-1,-2
1.59101213000603e+15,-1,1,0,-3,-1,-1,1,3
1.59101213002201e+15,0,1,0,2,1,1,-1,1
1.59101213002201e+15,-1,-1,-2,-2,-1,-1,-2,-2
1.59101213002299e+15,-1,-0,-3,-2,1,1,0,-2
1.59101213002299e+15,-1,1,0,3,1,1,-2,-1
1.59101213004397e+15,-1,-1,0,-1,-2,-2,-2,-2
1.59101213004397e+15,0,1,-1,0,0,0,0,-1
1.59101213004592e+15,-1,-0,-1,-2,-1,-1,-2,-1
1.59101213004592e+15,-1,1,2,0,1,1,0,-2
1.59101213005806e+15,-1,-0,-1,-1,-2,-2,-1,-1
1.59101213005806e+15,0,-1,-1,-2,-2,-2,-1,-1
1.59101213007391e+15,-1,-0,-1,1,-1,-1,-1,-1
1.59101213007391e+15,0,-1,-2,-2,-2,-2,-2,-1
1.59101213008184e+15,0,-0,-1,-2,-1,-1,0,-1
1.59101213008184e+15,-2,-0,-1,-2,-1,-1,-2,0
1.59101213008282e+15,1,-0,0,2,-1,-1,-1,0
1.59101213008282e+15,-1,-0,-1,-1,-2,-2,0,0
1.59101213010381e+15,0,-1,-1,-2,-1,-1,-2,-1
1.59101213010381e+15,-3,-1,-1,0,1,1,1,0
1.59101213010576e+15,-1,-1,-3,-1,1,1,0,-1
1.59101213010576e+15,-1,-1,-2,0,-1,-1,-1,-2
1.59101213013379e+15,-1,-1,0,-1,-3,-3,-5,-2
1.59101213013379e+15,0,-0,0,-3,0,0,3,0
1.59101213013568e+15,-3,-2,-3,2,-3,-3,-3,-4
1.59101213013568e+15,-1,-1,-2,-3,0,0,0,-2
1.59101213014969e+15,-6,-1,-2,-2,2,2,0,-2
1.59101213014969e+15,-3,-2,-2,-4,-3,-3,-2,-2
1.59101213015473e+15,-2,-0,1,0,0,0,0,0
1.59101213015473e+15,0,-1,-1,-1,-1,-1,-1,0
1.59101213016364e+15,-1,-1,-2,-1,-1,-1,-2,0
1.59101213016364e+15,0,-1,-1,-1,-2,-2,-4,-2
1.59101213016561e+15,0,-1,-3,-4,-2,-2,1,-1
1.59101213016561e+15,-1,1,1,0,-2,-2,1,0
1.59101213017766e+15,-1,-1,-2,0,0,0,-1,-1
1.59101213017766e+15,-1,-1,-2,-1,-2,-2,1,-3
1.59101213019262e+15,0,-1,-1,-3,-2,-2,-1,0
1.59101213019262e+15,-1,-0,1,1,-2,-2,-4,-2
1.59101213020158e+15,1,-0,1,-1,0,0,0,1
1.59101213020158e+15,-3,-2,-2,0,-1,-1,-4,-3
1.59101213020251e+15,-2,-2,-3,1,-2,-2,-2,-1
1.59101213020251e+15,-1,-1,-3,-5,0,0,0,1
1.59101213022449e+15,-1,-1,-4,-4,-3,-3,-1,-2
1.59101213022449e+15,-1,-1,0,-2,-2,-2,-1,0
1.59101213022644e+15,-3,-1,-1,-1,-1,-1,0,-3
1.59101213022644e+15,0,-0,-1,1,0,0,-1,-1
1.59101213023746e+15,0,-0,-2,1,-2,-2,-3,-2
1.59101213023746e+15,0,-0,-1,-1,0,0,1,-1
1.59101213024639e+15,-3,-1,1,-1,-2,-2,-1,-1
1.59101213024639e+15,-1,-1,-2,-2,1,1,-3,-2
1.5910121302614e+15,2,-0,-1,-2,-2,-2,-2,-1
1.5910121302614e+15,-2,-1,0,-2,-1,-1,-2,0
1.59101213026334e+15,-1,-0,-2,0,0,0,-1,-2
1.59101213026334e+15,-2,-1,-2,-3,-2,-2,-2,0
1.59101213028335e+15,-1,-0,-1,-2,-1,-1,-1,0
1.59101213028335e+15,-3,-1,0,2,-2,-2,-4,0
1.59101213029127e+15,1,-0,0,-2,-2,-2,2,2
1.59101213029127e+15,-2,-0,-2,-1,0,0,-2,0
1.59101213030722e+15,0,-0,0,0,-1,-1,3,0
1.59101213030722e+15,0,-0,-1,-1,0,0,-1,-2
1.59101213031221e+15,0,-0,-1,-2,-3,-3,-2,-2
1.59101213031221e+15,0,-0,-1,-1,-2,-2,1,-2
1.59101213032124e+15,-1,-0,0,0,-1,-1,-1,0
1.59101213032124e+15,-2,-0,1,-2,1,1,-1,-2
1.59101213032318e+15,-1,-0,0,0,0,0,-2,-3
1.59101213032318e+15,-1,-1,-3,-3,-1,-1,0,-2
1.59101213034418e+15,-1,-0,-1,0,0,0,0,0
1.59101213034418e+15,-2,-1,0,-2,-2,-2,-1,-1
1.59101213034612e+15,0,1,1,-1,2,2,1,0
1.59101213034612e+15,-1,-0,0,-1,-1,-1,0,0
1.59101213036706e+15,0,-0,-1,-1,-1,-1,0,1
1.59101213036706e+15,0,-0,-3,0,-1,-1,-1,-1
1.59101213036806e+15,-1,-1,-1,-4,0,0,-2,-2
1.59101213036806e+15,-1,-1,-2,0,-2,-2,1,-1
1.59101213038103e+15,-1,1,0,2,1,1,1,2
1.59101213038103e+15,-3,-1,-4,-1,0,0,-2,0
1.59101213038302e+15,-4,-1,0,1,0,0,-3,-2
1.59101213038302e+15,0,1,0,-1,1,1,0,2
1.59101213040403e+15,-2,-2,-3,-4,-1,-1,-3,-1
1.59101213040403e+15,-1,-0,0,-1,-3,-3,0,-1
1.59101213040596e+15,-1,-1,-2,0,-2,-2,-2,-2
1.59101213040596e+15,0,-0,0,1,-2,-2,0,-1
1.5910121304269e+15,-1,-1,-1,-3,-2,-2,-1,-2
1.5910121304269e+15,1,-0,-1,-2,0,0,1,-1
1.59101213043389e+15,-1,-0,1,0,1,1,0,-1
1.59101213043389e+15,-2,-1,-1,-2,-3,-3,-1,-2
1.59101213044186e+15,-1,-1,-1,-1,0,0,-3,-2
1.59101213044186e+15,-1,-1,-1,0,-2,-2,-3,-3
1.59101213044286e+15,0,-0,-1,-1,-1,-1,0,-1
1.59101213044286e+15,-1,-1,-1,0,1,1,-3,-2
1.59101213046381e+15,-1,-0,-2,-2,-2,-2,0,-1
1.59101213046381e+15,-2,-0,0,0,-1,-1,0,-2
1.5910121304658e+15,-1,-1,-1,-2,-2,-2,-1,-2
1.5910121304658e+15,-1,-1,-2,-3,-2,-2,-2,0
1.59101213048675e+15,-3,-1,-2,0,-2,-2,-2,-1
1.59101213048675e+15,-1,-0,-1,-2,-1,-1,-1,0
1.59101213048774e+15,-1,-0,-3,-1,0,0,0,3
1.59101213048774e+15,-1,-2,-2,-1,-4,-4,-6,-3
1.59101213050076e+15,-2,-1,-1,-2,-2,-2,-2,-2
1.59101213050076e+15,0,2,2,1,1,1,1,2
1.59101213050774e+15,-1,-1,-2,-3,-1,-1,-1,-1
1.59101213050774e+15,-2,-0,-1,-1,1,1,-2,-2
1.59101213052365e+15,-2,-1,-1,-2,-2,-2,-2,0
1.59101213052365e+15,0,-0,-1,0,-3,-3,-1,-1
1.59101213052564e+15,0,1,0,0,0,0,0,1
1.59101213052564e+15,-2,1,1,1,0,0,0,-1
1.59101213054563e+15,0,-2,-2,-3,-1,-1,-1,-4
1.59101213054563e+15,-2,-1,-3,-1,-2,-2,-1,-2
1.59101213055357e+15,1,-0,-1,0,-1,-1,1,-3
1.59101213055357e+15,-2,-0,1,0,-1,-1,-2,0
1.59101213056064e+15,0,-0,1,-1,-1,-1,-1,1
1.59101213056064e+15,0,-0,-2,-1,-1,-1,-1,-2
1.59101213057651e+15,0,-1,-1,-1,-1,-1,-2,-1
1.59101213057651e+15,-1,-0,0,2,-2,-2,-1,-3
1.59101213058463e+15,-2,-2,-2,-4,-2,-2,-3,-4
1.59101213058463e+15,-2,-0,0,-2,-1,-1,1,-1
1.5910121305905e+15,-1,-1,0,0,-2,-2,-1,-2
1.5910121305905e+15,-1,-0,0,-1,0,0,-1,-1
1.59101213060642e+15,-3,-0,-1,-1,-1,-1,-1,0
1.59101213060642e+15,1,-1,0,-3,0,0,-4,-2
1.59101213060742e+15,-2,-1,0,-1,-1,-1,-2,-2
1.59101213060742e+15,0,-0,0,-2,0,0,0,0
1.59101213062151e+15,0,-0,-1,-1,0,0,-2,-1
1.59101213062151e+15,-1,-1,-1,-4,-2,-2,0,1
1.5910121306275e+15,0,-0,0,-2,-2,-2,0,0
1.5910121306275e+15,-1,-1,-1,-3,-2,-2,-3,0
1.59101213064434e+15,0,1,0,-1,0,0,1,-1
1.59101213064434e+15,1,-2,-3,-2,-2,-2,-3,-2
1.59101213064532e+15,-1,-1,-1,0,-1,-1,0,-2
1.59101213064532e+15,0,-0,-1,-2,0,0,1,-1
1.59101213066627e+15,-3,-1,-3,0,-1,-1,-1,-1
1.59101213066627e+15,-2,-1,0,-1,-3,-3,-2,-3
1.59101213066827e+15,0,1,-2,-1,-1,-1,2,1
1.59101213066827e+15,-1,-1,-2,-1,0,0,-3,-1
1.59101213068023e+15,-1,-1,0,0,-3,-3,-1,-3
1.59101213068023e+15,-2,-1,-1,-2,-1,-1,-1,-2
1.59101213068722e+15,-1,-0,-3,-2,0,0,-2,1
1.59101213068722e+15,-1,-1,0,-2,-1,-1,-3,-1
1.59101213070345e+15,0,-0,0,-3,-1,-1,-1,1
1.59101213070345e+15,1,-0,0,-1,0,0,0,0
1.59101213071121e+15,-2,-2,-2,-2,-2,-2,-2,-1
1.59101213071121e+15,-1,-1,-3,-3,-2,-2,0,1
1.59101213072611e+15,-2,-2,-2,-1,0,0,-2,-3
1.59101213072611e+15,-2,-1,-1,-1,0,0,1,-2
1.5910121307281e+15,-2,-0,-2,1,0,0,0,-2
1.5910121307281e+15,0,-1,1,1,-2,-2,-1,-2
1.59101213074116e+15,-1,-1,0,-2,-2,-2,-3,-2
1.59101213074116e+15,-2,-0,-3,-2,0,0,5,1
1.59101213074718e+15,1,-0,1,0,-2,-2,-3,2
1.59101213074718e+15,-1,-1,-3,-2,-3,-3,0,0
1.59101213076403e+15,0,-1,-2,-1,-3,-3,-2,-2
1.59101213076403e+15,-1,1,1,2,0,0,-1,0
1.59101213076999e+15,-1,-1,-2,-4,0,0,-1,-2
1.59101213076999e+15,-2,-0,-1,-2,0,0,1,0
1.59101213078699e+15,0,-1,-3,-2,0,0,-3,-1
1.59101213078699e+15,1,-0,0,0,-2,-2,-1,-1
1.59101213078894e+15,-3,-0,-2,-2,-1,-1,-2,-1
1.59101213078894e+15,-1,-0,-1,1,-1,-1,1,0
1.59101213079997e+15,-1,-1,-2,-2,-1,-1,-1,-2
1.59101213079997e+15,-3,-0,-2,-1,0,0,-2,0
1.59101213080888e+15,-2,-0,-1,0,0,0,-2,0
1.59101213080888e+15,-3,-2,-1,-1,-2,-2,-2,-2
1.59101213083185e+15,-3,-1,-2,-2,-4,-4,0,0
1.59101213083185e+15,-1,-0,-2,-2,-1,-1,1,0
1.59101213083282e+15,0,-0,2,0,1,1,-1,-2
1.59101213083282e+15,-2,-0,0,-2,-2,-2,0,-1
1.59101213084679e+15,-3,-2,-1,-1,-1,-1,-4,-2
1.59101213084679e+15,-2,-1,0,-1,-2,-2,-3,-3
1.59101213085277e+15,-1,1,0,1,1,1,2,0
1.59101213085277e+15,-1,-0,-1,-1,0,0,-1,0
1.59101213085985e+15,0,-0,-1,-2,-2,-2,2,0
1.59101213085985e+15,-1,-1,-3,-3,0,0,-4,-1
1.59101213086872e+15,1,-0,0,0,0,0,-2,-3
1.59101213086872e+15,-2,-1,-3,-2,0,0,0,-1
1.59101213088383e+15,-3,-0,0,-1,0,0,-1,-2
1.59101213088383e+15,-2,-0,-2,-2,-1,-1,0,0
1.59101213088568e+15,-1,-1,-1,0,-2,-2,0,-1
1.59101213088568e+15,-2,-1,-2,-2,-2,-2,-3,-1
1.59101213090575e+15,-2,1,1,2,0,0,0,0
1.59101213090575e+15,-2,-2,-3,-6,-1,-1,-2,-2
1.59101213091263e+15,0,1,0,-1,0,0,4,3
1.59101213091263e+15,1,-0,0,-1,-2,-2,-2,-2
1.59101213091959e+15,-3,-1,-1,-2,-1,-1,-1,-1
1.59101213091959e+15,1,-1,0,1,-2,-2,-2,-1
1.59101213092856e+15,1,-0,-3,-1,-2,-2,-2,-1
1.59101213092856e+15,-1,1,-2,-2,2,2,3,0
1.59101213094456e+15,0,-0,-1,-1,1,1,-3,0
1.59101213094456e+15,-1,-1,-3,-2,-1,-1,-2,-1
1.59101213094552e+15,-1,-1,-2,-1,-1,-1,-4,0
1.59101213094552e+15,-2,-0,-1,-1,-2,-2,-1,1
1.59101213096659e+15,-2,-1,-1,-3,-2,-2,-1,-2
1.59101213096659e+15,0,-1,-1,-2,-1,-1,0,-2
1.59101213096771e+15,-2,-1,-2,-1,-1,-1,-3,-1
1.59101213096771e+15,-1,-1,-1,-1,-1,-1,-1,0
1.59101213098047e+15,-1,-0,-1,-2,-1,-1,0,1
1.59101213098047e+15,-2,-1,-1,0,-2,-2,-1,-1
1.59101213100436e+15,-1,-0,0,1,-1,-1,-1,-2
1.59101213100436e+15,-1,-1,-2,1,-1,-1,-3,-3
1.59101213100536e+15,-2,-1,-3,-3,0,0,2,-3
1.59101213100536e+15,-1,-0,0,-1,-1,-1,-2,-1
1.59101213100636e+15,0,-1,-2,-2,-2,-2,-2,-2
1.59101213100636e+15,-4,-1,-1,1,0,0,-1,-2
1.59101213102634e+15,-1,-2,-3,0,-1,-1,-2,-1
1.59101213102634e+15,-2,-1,-2,-2,-2,-2,0,-2
1.5910121310283e+15,-2,-1,-1,-1,0,0,-4,-1
1.5910121310283e+15,-1,-0,1,1,1,1,-2,-2
1.59101213104026e+15,0,-0,1,0,-1,-1,0,-2
1.59101213104026e+15,-1,-0,0,1,1,1,-3,0
1.59101213104924e+15,-1,-0,-2,0,-1,-1,0,-2
1.59101213104924e+15,1,-1,-1,-2,-2,-2,-2,-1
1.5910121310642e+15,1,-1,0,1,-4,-4,-3,-4
1.5910121310642e+15,1,-0,-4,-3,0,0,-1,-4
1.59101213106524e+15,-2,-0,0,-1,0,0,0,0
1.59101213106524e+15,0,-0,-3,-2,0,0,0,0
1.59101213108619e+15,-3,-1,0,0,0,0,-1,-1
1.59101213108619e+15,-2,-0,2,1,-2,-2,-3,0
1.59101213108815e+15,-1,-2,-3,-5,-2,-2,-1,-1
1.59101213108815e+15,-1,-0,-1,1,-2,-2,-1,-1
1.59101213110012e+15,0,-1,-2,-2,-2,-2,-3,-2
1.59101213110012e+15,-1,-0,-1,0,0,0,-1,-2
1.5910121311091e+15,0,-0,2,-1,0,0,1,2
1.5910121311091e+15,-1,-1,0,0,-1,-1,-2,-1
1.59101213112409e+15,-3,-2,-2,-2,-2,-2,0,-2
1.59101213112409e+15,0,-1,-1,-2,-2,-2,-2,-1
1.59101213113008e+15,-2,-1,-2,1,-3,-3,-2,0
1.59101213113008e+15,0,-1,0,-2,-1,-1,0,-1
1.59101213114699e+15,1,-1,-2,-3,-1,-1,-1,-1
1.59101213114699e+15,-2,-1,-2,-2,-1,-1,-1,-4
1.59101213114899e+15,-1,-1,-1,-2,0,0,0,-4
1.59101213114899e+15,-1,-1,-1,-1,2,2,-3,-3
1.59101213116001e+15,-2,-0,-1,-1,-1,-1,1,2
1.59101213116001e+15,-2,-0,-1,0,-1,-1,-1,-1
1.59101213117496e+15,-1,1,1,5,-2,-2,-2,-1
1.59101213117496e+15,0,-2,-2,-8,-1,-1,-1,-2
1.59101213118294e+15,-1,-1,-1,-1,-1,-1,-3,-4
1.59101213118294e+15,-2,-0,-1,-2,1,1,2,1
1.59101213119187e+15,-4,-1,-2,0,-1,-1,-1,-2
1.59101213119187e+15,-1,1,-2,1,0,0,0,1
1.59101213120685e+15,-2,-2,-2,-1,-4,-4,-5,-1
1.59101213120685e+15,-1,-1,-2,-1,-5,-5,0,0
1.59101213120783e+15,0,-1,-1,-2,-2,-2,-2,-2
1.59101213120783e+15,-1,-1,-3,-3,-2,-2,-2,-1
1.5910121312198e+15,-2,-0,0,-2,0,0,1,-1
1.5910121312198e+15,-3,-1,0,0,-2,-2,-1,-3
1.59101213122882e+15,-2,-0,0,0,-2,-2,0,-2
1.59101213122882e+15,0,-0,-1,-1,0,0,-2,-1
1.59101213124386e+15,1,1,-2,0,1,1,1,3
1.59101213124386e+15,0,-1,0,-1,-2,-2,-4,-2
1.59101213124573e+15,1,1,-3,-2,1,1,-1,0
1.59101213124573e+15,-1,-0,-1,-2,-1,-1,-1,-2
1.59101213126699e+15,-3,-3,-3,-3,-2,-2,0,-5
1.59101213126699e+15,-2,-0,-1,-2,1,1,0,-1
1.59101213127381e+15,2,1,-1,0,-1,-1,1,0
1.59101213127381e+15,1,-0,0,0,0,0,-2,-2
1.59101213128872e+15,-3,-1,-1,-1,-2,-2,-2,1
1.59101213128872e+15,0,-0,0,0,-1,-1,-2,0
1.59101213129071e+15,-3,-1,-1,-3,-1,-1,-1,0
1.59101213129071e+15,-4,-2,-3,-1,-1,-1,0,-2
1.59101213130368e+15,2,1,0,-1,1,1,-1,0
1.59101213130368e+15,-1,-2,-3,0,-2,-2,-1,-2
1.59101213130567e+15,-3,-1,0,-3,-1,-1,-1,-2
1.59101213130567e+15,-2,-1,0,-1,-1,-1,-3,0
1.59101213132677e+15,-2,-1,-2,-2,-1,-1,-2,-2
1.59101213132677e+15,-2,-0,0,-2,-2,-2,-1,0
1.59101213132861e+15,-2,-1,-2,0,0,0,-3,-1
1.59101213132861e+15,-2,-1,0,-1,-3,-3,-2,-1
1.59101213134855e+15,0,-1,-2,-1,-2,-2,-1,0
1.59101213134855e+15,0,-1,-1,-2,0,0,0,-1
1.59101213135055e+15,-2,-0,-1,0,-1,-1,0,1
1.59101213135055e+15,0,-0,-2,0,0,0,-2,2
1.59101213136351e+15,-1,-1,-2,-1,-1,-1,0,-2
1.59101213136351e+15,0,-1,-1,-2,-2,-2,-4,-4
1.59101213136552e+15,-1,-1,-2,-3,-2,-2,1,1
1.59101213136552e+15,-2,-0,-1,0,0,0,-2,-2
1.59101213138657e+15,-1,-0,-2,-1,0,0,0,-3
1.59101213138657e+15,1,-1,-3,-2,-2,-2,2,-1
1.59101213138767e+15,0,-1,-1,-1,-4,-4,0,-1
1.59101213138767e+15,0,1,1,0,-2,-2,-1,0
1.59101213140764e+15,0,-1,1,-2,-2,-2,-2,-1
1.59101213140764e+15,-1,-1,-2,-4,0,0,0,0
1.5910121314165e+15,0,-1,-1,0,-2,-2,-3,0
1.5910121314165e+15,0,-2,-4,-4,-4,-4,0,-1
1.59101213143248e+15,-1,1,0,-1,1,1,3,-1
1.59101213143248e+15,-3,-2,-1,0,-1,-1,-3,-3
1.59101213143345e+15,-1,-1,-1,-2,-2,-2,-2,-2
1.59101213143345e+15,-1,-0,0,0,-1,-1,0,-2
1.59101213144545e+15,-2,-1,-1,-2,-2,-2,0,1
1.59101213144545e+15,-3,-0,1,-1,-1,-1,0,0
1.59101213144692e+15,-1,-2,-5,-3,0,0,-2,-2
1.59101213144692e+15,-2,-1,-3,-1,0,0,-1,-1
1.59101213146809e+15,-3,-1,0,-1,-1,-1,-3,-3
1.59101213146809e+15,0,-0,-2,0,0,0,-1,-2
1.59101213147603e+15,0,-0,2,0,-2,-2,0,0
1.59101213147603e+15,-1,-1,-2,-1,-1,-1,-1,-3
1.59101213148286e+15,-2,-1,-2,-1,-3,-3,-3,-2
1.59101213148286e+15,-1,-1,-2,-2,-1,-1,0,-1
1.59101213149097e+15,-1,-0,1,-2,0,0,-1,0
1.59101213149097e+15,-1,-0,0,-3,-2,-2,-1,-1
1.59101213151476e+15,-3,-0,0,0,-1,-1,-1,-2
1.59101213151476e+15,-1,-0,3,3,-1,-1,-3,-3
1.59101213151476e+15,-1,-2,-5,-4,-2,-2,-3,-2
1.59101213151476e+15,0,-1,-2,0,0,0,-1,1
1.59101213153679e+15,2,-0,-2,-3,-2,-2,-1,-2
1.59101213153679e+15,-2,-0,-2,-2,-2,-2,0,0
1.59101213153679e+15,-1,-1,-1,-1,-1,-1,-1,-3
1.59101213153679e+15,-2,-0,-1,0,0,0,0,-2
1.59101213154298e+15,-1,-0,-2,0,0,0,1,0
1.59101213154298e+15,-1,-1,0,-2,-3,-3,-3,-2
1.59101213155076e+15,1,-0,-1,-2,-2,-2,-4,-1
1.59101213155076e+15,-3,-1,0,-3,-5,-5,-1,0
1.59101213156599e+15,-3,-0,2,-2,-1,-1,1,0
1.59101213156599e+15,-1,1,0,1,-1,-1,1,0
1.59101213157374e+15,-2,-0,0,0,0,0,1,0
1.59101213157374e+15,-3,-1,-1,-2,-2,-2,-2,-1
1.59101213158867e+15,-2,-0,0,2,0,0,-2,-2
1.59101213158867e+15,-1,-1,-2,-2,-1,-1,-1,-3
1.59101213158867e+15,-2,-0,0,0,-1,-1,-1,-2
1.59101213158867e+15,-1,-0,-3,-1,0,0,0,0
1.59101213160262e+15,-1,-1,-2,0,-2,-2,-2,-3
1.59101213160262e+15,1,-0,-1,-1,1,1,-1,-2
1.59101213161857e+15,-3,-0,0,0,-1,-1,0,-1
1.59101213161857e+15,-1,-0,-1,-1,1,1,-2,-1
1.59101213162561e+15,0,-1,-1,-2,-2,-2,-1,-1
1.59101213162561e+15,-1,-0,-4,0,0,0,2,-1
1.59101213163353e+15,-1,-1,0,1,-4,-4,-4,-1
1.59101213163353e+15,-2,-0,-1,-5,0,0,2,0
1.59101213164876e+15,-1,-3,-1,-1,-4,-4,-6,-3
1.59101213164876e+15,-1,-0,-1,1,-2,-2,-1,0
1.59101213164949e+15,-2,-0,-2,-2,0,0,0,-3
1.59101213164949e+15,-1,-1,0,1,-1,-1,-3,-3
1.5910121316625e+15,-2,-1,-3,0,1,1,0,-1
1.5910121316625e+15,-1,-1,-2,-3,0,0,-1,-2
1.59101213167043e+15,1,-0,-3,1,0,0,-1,-1
1.59101213167043e+15,-1,-2,-1,-4,-2,-2,-4,-2
1.59101213168542e+15,0,2,0,1,0,0,2,2
1.59101213168542e+15,0,-0,0,-1,0,0,0,1
1.59101213168639e+15,-2,-1,-1,-2,-2,-2,0,-2
1.59101213168639e+15,-1,-0,1,0,-1,-1,-1,-1
1.59101213170935e+15,-2,-1,-1,-4,-2,-2,1,1
1.59101213170935e+15,0,1,1,2,-1,-1,1,2
1.59101213171033e+15,-2,-0,-1,-2,0,0,-1,0
1.59101213171033e+15,-2,-0,0,0,-1,-1,0,0
1.59101213173142e+15,-1,-1,-3,-2,-2,-2,0,-1
1.59101213173142e+15,0,-1,-1,-1,0,0,-3,-2
1.59101213173227e+15,-2,-0,0,-3,-1,-1,-1,0
1.59101213173227e+15,-1,-1,-1,-1,-1,-1,-4,-1
1.59101213174534e+15,-1,-0,0,1,0,0,0,-2
1.59101213174534e+15,-4,-2,1,0,-2,-2,-3,-2
1.59101213174623e+15,1,-1,-5,-5,-1,-1,0,0
1.59101213174623e+15,-1,1,-1,0,0,0,2,0
1.59101213176817e+15,-1,-1,-1,0,-2,-2,-2,-3
1.59101213176817e+15,1,1,-1,1,-2,-2,-1,-1
1.59101213176917e+15,0,1,0,1,0,0,1,2
1.59101213176917e+15,0,-0,-1,0,-1,-1,-1,-1
1.59101213178229e+15,-1,-1,-1,-1,-1,-1,0,-3
1.59101213178229e+15,-1,-0,-1,1,-1,-1,0,-2
1.59101213179026e+15,-1,-0,-1,-2,-1,-1,-1,-2
1.59101213179026e+15,-1,-1,-1,0,-3,-3,-2,-2
1.59101213180519e+15,-1,-1,-3,-1,-1,-1,-2,1
1.59101213180519e+15,-1,-0,-2,-1,-2,-2,0,1
1.59101213180607e+15,-2,-1,-1,-2,-1,-1,-2,-2
1.59101213180607e+15,-1,-1,-2,-2,-1,-1,-1,-2
1.59101213182801e+15,-1,-1,-1,-2,-2,-2,0,-1
1.59101213182801e+15,0,1,0,-2,0,0,1,0
1.59101213183603e+15,0,-0,0,0,-2,-2,-1,0
1.59101213183603e+15,-3,-1,-1,-1,-2,-2,-1,-1
1.59101213184203e+15,-1,-1,-1,-1,0,0,-4,-3
1.59101213184203e+15,-1,-0,-1,0,-1,-1,-2,0
1.59101213184996e+15,-1,-0,0,1,-2,-2,0,1
1.59101213184996e+15,-2,-2,-3,-4,-2,-2,-2,-2
1.59101213186606e+15,-1,-0,0,1,-1,-1,1,1
1.59101213186606e+15,-1,1,1,3,-1,-1,4,4
1.59101213186606e+15,-2,-1,0,-2,1,1,-3,-4
1.59101213186606e+15,-1,-1,-1,-2,-1,-1,-1,-2
1.59101213189683e+15,0,-1,0,-2,-1,-1,-2,-3
1.59101213189683e+15,0,-2,-2,-2,0,0,-2,-3
1.59101213189683e+15,-1,-1,0,0,-2,-2,-2,0
1.59101213189683e+15,-1,-1,-2,-2,-2,-2,1,-2
1.59101213190281e+15,-1,-1,-1,-1,0,0,-2,-2
1.59101213190281e+15,-1,-0,-2,-2,0,0,-1,-1
1.59101213190979e+15,0,-0,-1,-2,0,0,-1,-1
1.59101213190979e+15,-2,-1,-2,-3,0,0,-2,-1
1.59101213192575e+15,-2,-0,-2,0,-1,-1,-1,-2
1.59101213192575e+15,0,-1,-1,-2,0,0,0,-1
1.59101213192675e+15,1,1,1,-1,-2,-2,-2,-2
1.59101213192675e+15,0,-0,-2,-2,-2,-2,0,1
1.59101213194896e+15,-3,-1,-1,-2,-1,-1,-2,0
1.59101213194896e+15,1,1,-2,-1,-2,-2,-1,0
1.59101213194969e+15,-2,-1,-1,-1,0,0,0,-1
1.59101213194969e+15,0,-0,1,-2,-1,-1,-2,-1
1.59101213196365e+15,-1,-0,0,-2,-2,-2,2,0
1.59101213196365e+15,-2,-2,0,-2,-1,-1,-2,-3
1.59101213196976e+15,-1,-1,-1,-1,0,0,-1,-1
1.59101213196976e+15,-2,-0,-2,-1,-2,-2,0,0
1.59101213198559e+15,0,-0,-2,-2,0,0,-1,-3
1.59101213198559e+15,-1,-1,-2,-1,1,1,-3,-3
1.59101213198659e+15,0,-0,-2,-1,-2,-2,0,2
1.59101213198659e+15,0,-1,-1,-2,-1,-1,-1,-1
1.59101213200854e+15,0,-2,-3,-4,-2,-2,-1,-2
1.59101213200854e+15,0,-0,-2,-1,-2,-2,0,-2
1.59101213201581e+15,-3,-2,-2,-1,-2,-2,-1,-3
1.59101213201581e+15,-1,1,2,3,0,0,0,0
1.59101213202465e+15,-1,-1,-4,-3,-1,-1,-1,1
1.59101213202465e+15,-1,-0,0,-1,0,0,-1,-1
1.59101213203857e+15,-2,-1,-3,-1,0,0,-2,-2
1.59101213203857e+15,-3,-1,-2,-2,-2,-2,0,-2
1.59101213204743e+15,-1,-1,0,0,-2,-2,-3,-2
1.59101213204743e+15,-1,-0,1,0,-2,-2,-3,-1
1.59101213204845e+15,-1,-0,-1,0,0,0,0,-2
1.59101213204845e+15,-2,-2,-1,0,-2,-2,-4,-2
1.59101213206841e+15,-2,-0,2,0,0,0,1,-2
1.59101213206841e+15,0,-1,-4,-3,-1,-1,-1,-2
1.59101213206937e+15,-2,-0,-1,1,-3,-3,-1,-1
1.59101213206937e+15,-2,-2,-5,-4,-2,-2,-2,-2
1.59101213209036e+15,0,-0,-1,-2,0,0,1,0
1.59101213209036e+15,0,-1,2,1,-3,-3,-2,-2
1.59101213209131e+15,0,1,-1,-2,0,0,-1,-1
1.59101213209131e+15,0,-1,-1,-2,0,0,1,-2
1.59101213210727e+15,-3,-2,-2,-2,-1,-1,-4,-2
1.59101213210727e+15,-2,-0,-1,-2,-1,-1,1,2
1.59101213210827e+15,1,-1,-1,-1,-1,-1,-2,-1
1.59101213210827e+15,-1,-2,-1,-1,1,1,-3,-3
1.59101213212833e+15,1,-1,0,-1,-2,-2,0,-4
1.59101213212833e+15,-2,-0,-1,-1,2,2,1,-2
1.59101213212928e+15,-1,-0,0,-2,-2,-2,2,0
1.59101213212928e+15,-2,-1,0,-3,-2,-2,-2,-1
1.59101213215026e+15,-2,-1,-1,-3,-2,-2,-1,0
1.59101213215026e+15,0,-1,-2,-2,-1,-1,-3,-3
1.59101213215121e+15,2,-1,-3,0,-2,-2,-2,-3
1.59101213215121e+15,-2,1,1,-1,2,2,1,-2
1.59101213216617e+15,-2,-2,-5,-1,-1,-1,-3,0
1.59101213216617e+15,-2,-0,-1,0,0,0,-1,-2
1.5910121321732e+15,-1,-1,-2,-3,-1,-1,-2,0
1.5910121321732e+15,-2,-1,0,2,-3,-3,-1,-2
1.59101213218816e+15,0,-0,0,1,-1,-1,0,0
1.59101213218816e+15,1,-0,-2,-3,0,0,1,2
1.59101213218911e+15,-1,-0,0,0,-1,-1,-1,2
1.59101213218911e+15,-1,-1,-2,-1,-1,-1,-1,-2
1.59101213221109e+15,-1,-0,0,1,-1,-1,1,-1
1.59101213221109e+15,0,-0,0,0,0,0,1,-1
1.59101213221109e+15,-2,-0,1,0,-1,-1,-2,0
1.59101213221109e+15,-1,-0,-2,-1,-2,-2,-2,-1
1.59101213223404e+15,-2,-2,-2,-1,-3,-3,-1,-3
1.59101213223404e+15,0,-0,0,0,-1,-1,-2,0
1.59101213223499e+15,-1,-1,-3,-3,-1,-1,-1,0
1.59101213223499e+15,1,-0,1,0,0,0,-2,-2
1.591012132248e+15,-2,-0,0,-1,-2,-2,0,-1
1.591012132248e+15,-3,-2,-2,-3,-2,-2,-1,-1
1.59101213224895e+15,-2,1,1,-1,1,1,3,0
1.59101213224895e+15,-1,-0,-1,0,-1,-1,-2,0
1.59101213227089e+15,1,-1,0,-2,-1,-1,-3,-2
1.59101213227089e+15,-2,-0,1,-1,-2,-2,0,0
1.59101213227089e+15,0,-1,0,-2,-1,-1,-3,-2
1.59101213227089e+15,-1,-1,-1,-1,-1,-1,0,-2
1.59101213228607e+15,1,-0,0,-2,-1,-1,0,-2
1.59101213228607e+15,-2,-1,-2,0,0,0,-2,-2
1.59101213228685e+15,-2,-2,-2,0,-2,-2,-4,-1
1.59101213228685e+15,-3,-2,-2,-2,-2,-2,0,-2
1.59101213230788e+15,1,-1,-2,-2,-1,-1,-2,-2
1.59101213230788e+15,1,-0,0,-1,-1,-1,-1,-1
1.59101213230879e+15,-2,-0,1,1,0,0,-1,-1
1.59101213230879e+15,0,-0,-1,-3,-2,-2,2,2
1.59101213233073e+15,-2,-0,-1,0,-1,-1,-2,0
1.59101213233073e+15,1,-0,-1,-1,-2,-2,-1,1
1.59101213233173e+15,-1,-1,-1,-1,0,0,0,-4
1.59101213233173e+15,-1,1,-1,0,-1,-1,0,1
1.59101213234572e+15,-4,-0,0,-1,0,0,0,-1
1.59101213234572e+15,0,-1,-1,-3,-2,-2,0,0
1.59101213234669e+15,0,-0,-2,-1,-1,-1,-1,0
1.59101213234669e+15,0,-0,-1,-3,0,0,0,-3
1.59101213236863e+15,0,1,0,1,-2,-2,-2,0
1.59101213236863e+15,-2,-1,-2,0,-1,-1,-1,-2
1.59101213236863e+15,1,-2,-3,-3,-3,-3,-3,-3
1.59101213236863e+15,0,-0,-1,0,0,0,-1,0
1.59101213239068e+15,-2,-0,-1,1,1,1,0,-4
1.59101213239068e+15,-1,-1,-1,2,-1,-1,-3,-2
1.59101213239157e+15,-2,-0,0,-1,-1,-1,0,-1
1.59101213239157e+15,-2,-0,0,3,-2,-2,-2,-1
1.59101213240563e+15,-4,-1,-4,-5,-1,-1,1,-2
1.59101213240563e+15,-1,1,-2,2,1,1,-1,0
1.59101213240653e+15,-1,-0,0,-1,-2,-2,-2,-1
1.59101213240653e+15,-1,-1,-2,-2,-1,-1,0,-1
1.59101213242847e+15,-2,-1,0,-1,-3,-3,0,-1
1.59101213242847e+15,-3,-1,-1,-2,-2,-2,0,-2
1.59101213242847e+15,0,-0,-2,-2,-1,-1,-1,1
1.59101213242847e+15,-1,-1,-2,-1,-3,-3,-1,-1
1.59101213245046e+15,-1,1,-1,-1,0,0,1,-2
1.59101213245046e+15,-3,-1,-1,-4,0,0,-3,-1
1.59101213245141e+15,-3,-0,0,0,0,0,0,-1
1.59101213245141e+15,0,-0,0,-1,0,0,-1,2
1.59101213246737e+15,2,1,1,0,-2,-2,0,1
1.59101213246737e+15,1,1,-1,0,-1,-1,0,1
1.59101213246837e+15,-1,-0,-1,0,0,0,-1,-2
1.59101213246837e+15,-2,-1,-3,-2,0,0,-2,-2
1.59101213248836e+15,-1,-1,-3,0,-1,-1,-2,-3
1.59101213248836e+15,-1,-1,-1,-2,-2,-2,-1,-1
1.59101213248931e+15,-1,-0,0,1,-1,-1,-1,-3
1.59101213248931e+15,-2,-1,-1,-2,-1,-1,0,-3
1.59101213251927e+15,0,-0,1,-1,-2,-2,0,1
1.59101213251927e+15,1,-0,0,-2,0,0,-2,-2
1.59101213251927e+15,-3,-1,-1,-1,-1,-1,0,0
1.59101213251927e+15,-3,-0,1,0,0,0,-2,-2
1.59101213253323e+15,0,-0,-1,1,-2,-2,-2,-2
1.59101213253323e+15,-1,-0,-2,-2,1,1,-1,-2
1.59101213253419e+15,-2,-1,-2,-2,0,0,-4,0
1.59101213253419e+15,0,-0,-1,-1,-2,-2,0,2
1.5910121325482e+15,-2,-1,1,1,1,1,-4,0
1.5910121325482e+15,0,1,0,0,-1,-1,3,0
1.59101213254915e+15,-1,-0,0,-1,-2,-2,-1,-1
1.59101213254915e+15,0,-1,-2,-1,-2,-2,-2,-2
1.59101213257113e+15,-2,-1,0,0,-1,-1,-2,-2
1.59101213257113e+15,-1,-0,-1,1,-1,-1,-2,1
1.59101213257113e+15,-1,-1,0,0,-2,-2,-2,-2
1.59101213257113e+15,0,-0,0,-1,-2,-2,-2,-1
1.59101213258685e+15,0,-0,-1,-3,-3,-3,1,0
1.59101213258685e+15,-2,-2,-3,-1,-1,-1,-3,-4
1.59101213258782e+15,-2,-0,0,-3,-1,-1,-1,-1
1.59101213258782e+15,-1,-0,0,-3,0,0,1,0
1.59101213260777e+15,0,-0,-1,-1,-1,-1,1,0
1.59101213260777e+15,-1,-1,-1,-2,-3,-3,-1,-1
1.59101213260876e+15,-2,-0,-1,0,0,0,-2,-3
1.59101213260876e+15,-2,-1,-1,-1,-1,-1,-2,-2
1.5910121326307e+15,-1,1,-1,-1,1,1,-1,0
1.5910121326307e+15,-1,-1,-2,0,-2,-2,-2,-1
1.5910121326317e+15,1,-1,-1,-1,-1,-1,-2,-2
1.5910121326317e+15,1,1,-1,1,2,2,1,1
1.59101213265379e+15,-1,-1,-3,-1,-2,-2,-1,-1
1.59101213265379e+15,-2,-1,-2,-1,-1,-1,-3,1
1.59101213265464e+15,-2,-1,-1,-1,-2,-2,0,1
1.59101213265464e+15,-2,-1,0,-1,-1,-1,-2,-3
1.5910121326676e+15,-1,-0,-1,0,-2,-2,-1,0
1.5910121326676e+15,2,1,0,-1,-1,-1,3,2
1.5910121326686e+15,-3,-2,-3,-2,-2,-2,1,-3
1.5910121326686e+15,-1,-2,-1,-3,-2,-2,-2,-1
1.59101213269123e+15,1,-1,-1,-2,-1,-1,-1,-3
1.59101213269123e+15,-1,-2,-2,-1,-4,-4,-3,-2
1.59101213269123e+15,0,-0,-2,-1,0,0,-1,1
1.59101213269123e+15,0,-0,0,-1,0,0,-1,-1
1.5910121327071e+15,-1,-0,-1,-1,1,1,-2,-3
1.5910121327071e+15,-3,-1,-1,-1,-1,-1,-2,-2
1.59101213270809e+15,-2,-1,-3,-2,-2,-2,1,-2
1.59101213270809e+15,-3,-1,-1,0,-2,-2,-4,-4
1.59101213273701e+15,-1,2,1,2,0,0,2,0
1.59101213273701e+15,-2,-1,-1,-3,0,0,-2,1
1.59101213273801e+15,-1,-1,-1,-2,-1,-1,-2,-1
1.59101213273801e+15,-1,-0,-2,1,1,1,1,-2
1.59101213275105e+15,0,-1,-2,-2,-1,-1,-2,-1
1.59101213275105e+15,-1,-0,0,0,-3,-3,0,-1
1.59101213275819e+15,-3,-1,0,-2,-1,-1,-3,-2
1.59101213275819e+15,-1,-1,0,-2,-3,-3,-2,-1
1.59101213276594e+15,-1,1,1,1,0,0,1,0
1.59101213276594e+15,0,-0,-4,0,0,0,-2,-1
1.59101213276694e+15,0,-1,-3,-4,-1,-1,1,0
1.59101213276694e+15,-2,-1,-2,0,-2,-2,-2,-1
1.59101213278788e+15,-1,-1,-1,-1,-3,-3,0,1
1.59101213278788e+15,-2,-1,1,-1,-2,-2,-1,-1
1.59101213278887e+15,-1,-0,-1,-2,-1,-1,-1,0
1.59101213278887e+15,-2,-0,0,-1,0,0,1,-1
1.59101213281085e+15,-1,-0,1,1,-2,-2,-1,-1
1.59101213281085e+15,-1,-0,1,-1,-1,-1,0,-1
1.59101213281806e+15,-2,-1,-2,-3,-1,-1,-3,0
1.59101213281806e+15,-1,-0,-1,1,-1,-1,1,1
1.591012132825e+15,-1,-1,-2,-2,-1,-1,-1,-1
1.591012132825e+15,-2,-0,1,1,-1,-1,1,-2
1.59101213283376e+15,-2,-2,0,1,-1,-1,-4,-2
1.59101213283376e+15,0,-2,-2,-4,-2,-2,-2,-2
1.59101213284875e+15,-1,-1,0,-1,0,0,-2,-1
1.59101213284875e+15,1,-1,-3,-3,0,0,-1,1
1.59101213284875e+15,-2,-1,0,0,-2,-2,-1,-3
1.59101213284875e+15,0,-0,0,1,-2,-2,-2,0
1.59101213287066e+15,0,1,1,0,0,0,0,0
1.59101213287066e+15,2,1,0,-2,1,1,-1,-1
1.59101213287166e+15,0,-0,-2,-2,-1,-1,1,1
1.59101213287166e+15,-1,-1,-2,-1,-1,-1,-2,-1
1.59101213288469e+15,-2,-0,-1,-2,0,0,-1,-1
1.59101213288469e+15,-1,-1,-2,-1,0,0,-2,-1
1.59101213289367e+15,-2,-1,-1,0,1,1,-2,-3
1.59101213289367e+15,0,-0,-2,-2,-1,-1,0,1
1.59101213290858e+15,-1,-1,-2,-2,-2,-2,-2,-2
1.59101213290858e+15,-2,-1,-1,-1,-2,-2,0,-1
1.59101213290858e+15,0,1,-2,-3,-2,-2,1,0
1.59101213290858e+15,0,-1,-2,-1,0,0,0,-4
1.5910121329305e+15,-1,-0,-1,-1,0,0,0,-1
1.5910121329305e+15,-2,-0,1,1,-3,-3,-1,2
1.59101213293149e+15,-2,-3,-4,-1,-3,-3,-4,0
1.59101213293149e+15,-2,-1,0,-1,-1,-1,-2,-3
1.59101213294481e+15,-2,-0,0,0,-1,-1,1,0
1.59101213294481e+15,-1,-1,-1,-2,-1,-1,-2,-1
1.59101213295446e+15,-1,-1,1,-2,0,0,1,-3
1.59101213295446e+15,-2,-1,-2,0,-1,-1,0,-1
1.59101213296842e+15,2,-0,-2,0,0,0,-2,-2
1.59101213296842e+15,-1,-1,1,-1,-3,-3,-2,-1
1.59101213296943e+15,0,-0,0,-1,0,0,0,-1
1.59101213296943e+15,-1,-0,-2,-3,-2,-2,1,1
1.59101213299109e+15,-1,-0,-1,-1,-1,-1,-1,1
1.59101213299109e+15,-3,-1,-3,-1,0,0,-1,0
1.59101213299109e+15,-2,-0,0,0,-2,-2,-1,-1
1.59101213299109e+15,-2,-2,0,-3,-1,-1,-2,-2
1.59101213300501e+15,-1,-1,-1,2,-1,-1,-3,-3
1.59101213300501e+15,1,1,-1,-2,1,1,2,1
1.59101213301354e+15,-2,-0,-2,1,-1,-1,0,-2
1.59101213301354e+15,0,-1,0,-1,-2,-2,-1,-2
1.59101213302847e+15,0,-0,1,0,-2,-2,-3,-2
1.59101213302847e+15,-2,-1,-1,-1,-1,-1,-2,-4
1.59101213302943e+15,-2,-1,0,-2,-1,-1,-2,-2
1.59101213302943e+15,-1,-0,-2,2,0,0,-1,-1
1.59101213305136e+15,-1,-0,-3,-1,0,0,0,-1
1.59101213305136e+15,0,-0,0,-1,-2,-2,-1,-1
1.59101213305236e+15,-2,-0,-1,-2,0,0,2,0
1.59101213305236e+15,0,-0,-1,1,-4,-4,1,0
1.59101213306632e+15,-1,-1,-1,-2,-2,-2,-1,-1
1.59101213306632e+15,-1,-1,-1,-1,-1,-1,0,-3
1.5910121330733e+15,-1,-1,0,-1,-3,-3,-2,-3
1.5910121330733e+15,1,-0,0,-1,2,2,-1,-2
1.59101213309624e+15,0,-0,0,-1,0,0,1,-1
1.59101213309624e+15,-3,-2,-3,-4,-4,-4,-2,-2
1.59101213309724e+15,-2,-0,0,0,0,0,-3,-2
1.59101213309724e+15,-1,-0,-1,-1,-2,-2,0,-1
1.59101213311133e+15,1,-0,-1,-1,0,0,1,-1
1.59101213311133e+15,0,-1,-2,-1,0,0,-1,-2
1.59101213312619e+15,0,-0,-2,-1,-1,-1,-1,1
1.59101213312619e+15,-1,-1,0,-2,-1,-1,-2,-3
1.59101213312816e+15,-2,-1,-2,-1,-2,-2,-2,1
1.59101213312816e+15,-2,-0,0,1,0,0,-3,-1
1.59101213313317e+15,-1,-1,-1,0,-2,-2,-1,-1
1.59101213313317e+15,-1,-0,-2,0,-1,-1,-1,1
1.59101213314824e+15,-1,-1,0,0,-2,-2,-2,-3
1.59101213314824e+15,1,2,2,-1,1,1,3,4
1.5910121331561e+15,0,-1,0,-1,-2,-2,-1,-2
1.5910121331561e+15,-3,-3,-3,-3,-2,-2,-3,-3
1.59101213317112e+15,-1,-1,-1,-2,-1,-1,-1,-1
1.59101213317112e+15,0,-0,0,0,-2,-2,-1,-2
1.59101213317112e+15,-3,-1,-1,-3,0,0,-2,0
1.59101213317112e+15,-1,-0,0,-1,-1,-1,1,-1
1.59101213319398e+15,1,-0,-1,-1,0,0,-1,-2
1.59101213319398e+15,-2,-1,-1,-1,-2,-2,-2,-1
1.59101213320101e+15,-1,-1,-2,-1,-1,-1,-1,-3
1.59101213320101e+15,-1,-1,-1,-1,0,0,-3,-1
1.59101213320994e+15,-1,-1,-2,-2,-1,-1,-1,1
1.59101213320994e+15,-1,-0,-1,-1,1,1,0,-1
1.59101213321093e+15,0,-0,-1,-2,-2,-2,0,-3
1.59101213321093e+15,-2,-1,-2,-2,-1,-1,1,-3
1.59101213323088e+15,-2,-1,-1,-1,0,0,-1,-1
1.59101213323088e+15,0,-1,-2,0,-2,-2,-3,-2
1.5910121332319e+15,-1,-1,0,-3,-3,-3,-2,0
1.5910121332319e+15,-3,-1,-2,-2,0,0,-3,-4
1.59101213325318e+15,-1,-0,0,-2,0,0,0,0
1.59101213325318e+15,2,-0,-2,-2,-1,-1,-1,-2
1.5910121332608e+15,0,-0,0,0,0,0,-1,-2
1.5910121332608e+15,0,-0,-1,-1,0,0,-2,-1
1.59101213326779e+15,-2,-0,0,-2,-3,-3,-2,0
1.59101213326779e+15,-1,-1,-3,-2,-1,-1,0,-1
1.59101213326878e+15,-1,-0,-2,1,-1,-1,-2,0
1.59101213326878e+15,-1,-1,-1,-2,-2,-2,0,-2
1.59101213329101e+15,1,-0,-4,0,-1,-1,-1,0
1.59101213329101e+15,-2,-0,-1,0,0,0,0,2
1.59101213329172e+15,0,-1,-2,-3,0,0,1,0
1.59101213329172e+15,-1,2,2,3,-2,-2,-1,2
1.59101213331466e+15,-1,-1,-1,-1,-2,-2,-1,-1
1.59101213331466e+15,-1,-0,0,-1,-2,-2,-3,0
1.59101213331566e+15,0,-2,-3,-2,-3,-3,-1,-3
1.59101213331566e+15,0,-0,-1,-3,0,0,2,-2
1.59101213332772e+15,1,-1,-2,-2,-1,-1,-2,-4
1.59101213332772e+15,0,-1,-1,-3,0,0,0,-3
1.59101213332862e+15,-2,-2,-2,0,-1,-1,-6,-3
1.59101213332862e+15,0,-0,-2,-2,-1,-1,2,0
1.5910121333506e+15,-2,-1,1,1,-1,-1,-4,-2
1.5910121333506e+15,-3,-1,-3,1,1,1,0,0
1.59101213335156e+15,-3,-1,-2,-2,-2,-2,-1,1
1.59101213335156e+15,0,-1,-2,-1,-1,-1,-2,-2
1.5910121333738e+15,-2,-2,-1,-3,-1,-1,-1,-2
1.5910121333738e+15,2,1,-1,1,0,0,0,-1
1.5910121333745e+15,-1,-0,0,0,0,0,1,-2
1.5910121333745e+15,-2,-1,-1,-1,-1,-1,-2,-2
1.59101213338861e+15,-1,-1,-2,-1,-2,-2,-2,0
1.59101213338861e+15,-1,-1,-1,-1,-2,-2,1,-3
1.59101213338949e+15,-1,-0,-2,0,1,1,0,-1
1.59101213338949e+15,-1,-1,-2,-3,-2,-2,-1,-2
1.59101213341052e+15,-1,-0,1,0,-1,-1,-3,-1
1.59101213341052e+15,-3,-1,2,-1,0,0,-2,1
1.5910121334114e+15,-2,5,0,-1,-1,-1,0,34
1.5910121334114e+15,0,2,-2,-2,-3,-3,-2,23
1.59101213343451e+15,-1,-0,-2,-3,-4,-4,0,7
1.59101213343451e+15,-1,-1,-1,-1,-1,-1,-1,-4
1.59101213343451e+15,-1,-2,-1,-2,1,1,2,-20
1.59101213343451e+15,-2,-3,-1,-1,0,0,-4,-17
1.59101213344851e+15,-2,-1,-1,0,0,0,0,-8
1.59101213344851e+15,-1,-2,-2,-1,-2,-2,-2,-10
1.59101213344934e+15,0,-1,1,-1,-1,-1,1,-10
1.59101213344934e+15,0,-0,-1,0,0,0,1,-6
1.59101213347159e+15,-1,-1,-1,-2,1,1,-1,-4
1.59101213347159e+15,-2,-1,-1,-2,-1,-1,-2,0
1.59101213347832e+15,0,-0,-2,0,0,0,-1,-4
1.59101213347832e+15,-2,-0,-1,-2,0,0,1,-2
1.59101213349431e+15,-2,-1,0,1,-3,-3,-1,-1
1.59101213349431e+15,-2,1,1,-2,0,0,0,0
1.59101213349431e+15,-2,-1,-2,-2,-2,-2,-2,-2
1.59101213349431e+15,-1,-2,-1,0,-2,-2,-1,-6
1.59101213350829e+15,-2,-0,-4,-1,2,2,3,0
1.59101213350829e+15,-1,-1,-1,-3,-1,-1,-2,2
1.59101213350924e+15,2,1,1,1,-1,-1,-1,-3
1.59101213350924e+15,-2,-0,-1,1,1,1,1,-4
1.59101213353118e+15,-2,-2,-3,-3,-2,-2,-4,-1
1.59101213353118e+15,-1,-1,-2,-1,-1,-1,-2,1
1.59101213353118e+15,-2,-0,-1,-1,1,1,0,-2
1.59101213353118e+15,1,-0,-1,0,0,0,-4,1
1.59101213355417e+15,1,1,-1,0,0,0,0,2
1.59101213355417e+15,-3,-1,-1,0,-1,-1,-1,0
1.59101213355512e+15,0,-1,-1,-2,-2,-2,-3,-1
1.59101213355512e+15,-2,-1,-1,-1,-1,-1,0,-1
1.59101213356908e+15,-1,-0,1,-1,-1,-1,1,-2
1.59101213356908e+15,0,-1,-1,0,-1,-1,0,-3
1.59101213357612e+15,-1,-1,-3,-2,-2,-2,0,-3
1.59101213357612e+15,-2,-0,-1,0,-2,-2,0,1
1.59101213359104e+15,0,-1,-1,0,-3,-3,-3,-2
1.59101213359104e+15,0,-0,0,-2,-1,-1,-1,2
1.59101213359104e+15,0,-0,-1,0,0,0,-1,1
1.59101213359104e+15,1,-0,0,-2,-2,-2,-1,0
1.59101213361401e+15,-2,-0,-1,-2,0,0,-1,0
1.59101213361401e+15,-1,-1,-1,0,-2,-2,-3,-1
1.59101213362098e+15,-1,-2,-1,-4,-2,-2,-3,-1
1.59101213362098e+15,-2,1,0,-1,1,1,2,-2
1.59101213362995e+15,-1,-0,-2,-1,0,0,1,-1
1.59101213362995e+15,-2,-1,-1,-5,0,0,-2,-2
1.59101213362995e+15,1,-0,-2,-1,-2,-2,0,0
1.59101213362995e+15,0,-1,-2,0,-2,-2,-4,-2
1.5910121336511e+15,-1,-1,-2,-2,-2,-2,-2,-1
1.5910121336511e+15,-1,-0,-2,-2,1,1,-1,0
1.5910121336519e+15,-2,-1,-1,0,-2,-2,-2,-2
1.5910121336519e+15,-1,-0,0,0,-1,-1,0,0
1.59101213367483e+15,-2,-1,0,-2,-1,-1,-1,-2
1.59101213367483e+15,-1,-1,-2,-3,-2,-2,0,0
1.59101213367583e+15,-2,-0,0,-1,0,0,-4,3
1.59101213367583e+15,1,-0,-1,-1,-2,-2,-2,1
1.59101213368779e+15,2,-0,-1,-2,0,0,0,-1
1.59101213368779e+15,-2,-0,-1,1,-1,-1,2,-1
1.59101213368879e+15,0,-0,-2,-2,-1,-1,1,-2
1.59101213368879e+15,-1,-1,-1,-2,0,0,0,-2
1.59101213371109e+15,-1,-1,-1,1,-1,-1,-3,1
1.59101213371109e+15,0,-2,-1,-2,-3,-3,-3,-3
1.59101213371173e+15,0,-1,-1,-1,-1,-1,-2,-3
1.59101213371173e+15,-3,-1,-1,0,0,0,-1,-1
1.59101213373396e+15,-3,-1,-1,-3,-2,-2,0,0
1.59101213373396e+15,-1,-0,-1,-1,-1,-1,-2,1
1.59101213373467e+15,-2,-0,0,1,0,0,-2,-2
1.59101213373467e+15,-1,-1,-2,-3,-1,-1,2,2
1.59101213375564e+15,-1,-0,-1,1,1,1,0,-1
1.59101213375564e+15,-3,-1,-1,0,-1,-1,-3,-1
1.59101213376359e+15,-2,-1,-1,-1,-2,-2,-1,-2
1.59101213376359e+15,-2,-0,0,1,-1,-1,-1,-1
1.59101213377057e+15,-2,-0,-1,0,-1,-1,2,0
1.59101213377057e+15,0,-0,-1,-1,-1,-1,-1,-2
1.59101213377157e+15,-2,-0,-1,-1,1,1,-2,-2
1.59101213377157e+15,1,-0,-1,1,-1,-1,0,1
1.59101213379354e+15,-2,-2,-2,-1,-1,-1,-6,-3
1.59101213379354e+15,-2,-1,-2,-2,-2,-2,-1,0
1.59101213379451e+15,0,-1,-1,-2,0,0,0,-3
1.59101213379451e+15,2,1,0,-1,0,0,0,0
1.59101213381645e+15,-2,-1,-1,-1,-2,-2,-3,-4
1.59101213381645e+15,-3,-1,-1,0,-1,-1,-1,-3
1.59101213381745e+15,0,-1,-2,-3,-3,-3,0,-2
1.59101213381745e+15,-1,-0,0,-1,0,0,-1,-2
1.59101213383068e+15,-1,-1,-1,-3,0,0,-2,0
1.59101213383068e+15,-1,-1,-2,-3,-1,-1,-3,-1
1.59101213383167e+15,0,-0,-2,-2,-1,-1,1,1
1.59101213383167e+15,-2,-0,-1,0,-1,-1,0,0
1.59101213385366e+15,-1,-0,1,0,-3,-3,0,0
1.59101213385366e+15,-2,-2,-1,-1,-2,-2,-3,-3
1.59101213385461e+15,0,-0,-2,-1,-1,-1,0,0
1.59101213385461e+15,0,-0,-3,0,0,0,-1,-3
1.59101213386786e+15,1,-1,-1,-1,-2,-2,0,-3
1.59101213386786e+15,-1,-1,-1,-2,-1,-1,-2,-2
1.59101213387581e+15,-1,-0,-2,0,1,1,1,-3
1.59101213387581e+15,0,-1,-2,-2,0,0,-4,-3
1.59101213389051e+15,-1,-0,-1,-2,-1,-1,3,1
1.59101213389051e+15,-1,-1,-2,-3,-2,-2,-5,0
1.59101213389849e+15,-2,-0,1,-1,-1,-1,0,0
1.59101213389849e+15,0,1,0,1,-1,-1,0,2
1.59101213391345e+15,0,1,-1,-1,1,1,-2,0
1.59101213391345e+15,0,-1,-2,-2,-2,-2,-2,-2
1.59101213391445e+15,-1,-0,1,-1,-3,-3,-2,0
1.59101213391445e+15,-2,-2,0,-1,-1,-1,-1,-3
1.59101213392741e+15,-1,-1,-2,-2,-2,-2,-1,-1
1.59101213392741e+15,-2,-0,-2,-1,0,0,2,-1
1.59101213393539e+15,0,-1,0,-2,-1,-1,-1,-3
1.59101213393539e+15,0,-0,0,-1,-1,-1,0,0
1.59101213395147e+15,-2,-0,1,0,-1,-1,-3,-3
1.59101213395147e+15,-1,-0,1,0,-1,-1,1,0
1.59101213395857e+15,0,-0,2,0,0,0,-1,-3
1.59101213395857e+15,-1,-0,-3,-2,-1,-1,-3,-1
1.5910121339746e+15,-1,-0,-4,-1,0,0,0,-1
1.5910121339746e+15,0,-0,0,-1,-3,-3,-2,0
1.59101213397546e+15,-3,-2,-2,-2,-2,-2,-2,-1
1.59101213397546e+15,-1,-1,0,0,-1,-1,-1,-2
1.59101213398742e+15,-1,-0,-2,0,0,0,3,-1
1.59101213398742e+15,-2,-2,-1,-2,-1,-1,-5,-4
1.59101213399543e+15,-1,-1,-2,0,-1,-1,0,1
1.59101213399543e+15,-2,-1,-1,-1,-1,-1,-4,-2
1.59101213401037e+15,1,1,0,0,-1,-1,-1,2
1.59101213401037e+15,2,1,0,1,1,1,2,0
1.59101213401136e+15,-1,-1,-1,-1,-1,-1,-2,-2
1.59101213401136e+15,2,-0,-3,-2,0,0,1,-2
1.59101213403443e+15,-1,-0,-1,0,-1,-1,-1,-3
1.59101213403443e+15,0,-1,-2,-2,-2,-2,0,-2
1.59101213403443e+15,-1,-0,-2,0,-1,-1,0,2
1.59101213403443e+15,0,1,0,0,-1,-1,0,-1
1.59101213404734e+15,-1,-1,-3,-3,-1,-1,0,1
1.59101213404734e+15,-1,-1,0,-3,0,0,-1,-2
1.59101213405546e+15,0,-1,-1,-2,-2,-2,-1,0
1.59101213405546e+15,-1,-0,1,0,-2,-2,0,0
1.59101213407024e+15,-2,-1,-1,0,-1,-1,-2,-2
1.59101213407024e+15,-4,-0,0,-1,-1,-1,4,-1
1.5910121340712e+15,-1,-1,-1,-1,1,1,-4,-1
1.5910121340712e+15,-1,-1,-1,-1,-1,-1,-2,-1
1.59101213409415e+15,-2,-0,-2,-3,0,0,-2,-1
1.59101213409415e+15,-1,-2,-3,-2,-2,-2,-4,-2
1.59101213409514e+15,-1,-1,-2,-3,0,0,1,-2
1.59101213409514e+15,-2,-0,-1,0,-2,-2,-1,0
1.59101213411708e+15,-1,-1,0,-3,-1,-1,-3,0
1.59101213411708e+15,-1,-1,-2,-1,-2,-2,1,-2
1.59101213411808e+15,-1,-0,0,-1,-1,-1,-1,-3
1.59101213411808e+15,1,-0,-1,-2,0,0,-2,0
1.59101213413104e+15,-1,-0,2,-1,-1,-1,0,-1
1.59101213413104e+15,-1,-0,-1,1,0,0,-1,1
1.59101213413104e+15,-2,-1,-1,-1,-1,-1,-1,-1
1.59101213413104e+15,1,1,-1,-1,1,1,2,0
1.59101213415398e+15,-1,-0,-1,-1,-1,-1,-1,0
1.59101213415398e+15,-4,-2,-1,-3,-2,-2,-3,0
1.59101213415498e+15,0,-0,-1,0,0,0,0,-1
1.59101213415498e+15,-1,-0,-1,-2,-2,-2,1,1
1.59101213417792e+15,-1,-0,-1,-1,-1,-1,0,1
1.59101213417792e+15,-2,-2,-1,1,-2,-2,-5,-3
1.59101213417792e+15,-3,-1,-1,-2,0,0,-3,-2
1.59101213417792e+15,-1,-1,-1,-2,-2,-2,-1,-1
1.59101213419095e+15,-2,-1,-1,-2,-1,-1,-3,-2
1.59101213419095e+15,1,-0,-2,-2,-2,-2,0,-1
1.5910121341919e+15,-2,-1,-2,0,-3,-3,0,-4
1.5910121341919e+15,-1,-1,-1,-1,1,1,-1,-4
1.59101213421387e+15,0,-1,-2,1,-3,-3,-2,-2
1.59101213421387e+15,0,-0,-3,-2,0,0,0,-1
1.59101213421484e+15,-1,-0,0,-2,0,0,-1,-2
1.59101213421484e+15,-1,-1,-2,0,-1,-1,-1,0
1.59101213423677e+15,-2,-1,-1,0,-1,-1,-1,-1
1.59101213423677e+15,-2,-1,-2,-1,0,0,-1,-1
1.59101213423677e+15,-2,-1,-1,-3,-1,-1,0,-1
1.59101213423677e+15,-3,-2,-1,0,-3,-3,-1,-2
1.59101213425074e+15,-2,-0,-1,-2,-1,-1,0,3
1.59101213425074e+15,-2,-0,1,-1,-1,-1,0,0
1.59101213425173e+15,0,-0,-2,-2,-1,-1,2,-1
1.59101213425173e+15,-2,-2,-2,1,-2,-2,-3,-3
1.59101213427284e+15,-2,-1,-1,-2,-2,-2,-1,-2
1.59101213427284e+15,-1,-0,-1,0,0,0,2,-1
1.59101213427382e+15,-1,-1,-1,-1,-1,-1,-4,-1
1.59101213427382e+15,1,-0,1,-3,-1,-1,-2,-1
1.59101213429676e+15,-1,1,0,0,0,0,0,-1
1.59101213429676e+15,-3,-1,-2,-1,-1,-1,0,-3
1.59101213429676e+15,0,-0,0,-2,-1,-1,1,0
1.59101213429676e+15,1,-0,-1,-1,-2,-2,1,0
1.59101213431068e+15,-1,-1,0,-2,0,0,-2,-2
1.59101213431068e+15,-2,-0,-2,-1,-1,-1,-1,-1
1.59101213431169e+15,-2,-1,-3,0,-2,-2,-1,-2
1.59101213431169e+15,-1,-0,-2,-1,0,0,-1,1
1.59101213433367e+15,0,-0,1,-1,1,1,-1,-2
1.59101213433367e+15,0,1,1,0,0,0,0,-1
1.59101213433462e+15,-1,-1,0,-2,-1,-1,-2,-2
1.59101213433462e+15,-1,-1,-1,-1,-1,-1,0,-1
1.59101213435656e+15,-2,-2,-2,-1,-2,-2,-6,-3
1.59101213435656e+15,0,1,1,1,-1,-1,0,2
1.59101213435756e+15,-2,-0,-1,1,-1,-1,-1,-1
1.59101213435756e+15,-1,-0,1,-1,-1,-1,0,1
1.59101213437053e+15,1,-0,-1,-1,-1,-1,-2,-2
1.59101213437053e+15,-2,-2,-2,-3,-2,-2,-2,-3
1.59101213437152e+15,-2,-0,-2,-3,-1,-1,1,0
1.59101213437152e+15,-2,-0,0,1,0,0,-2,-4
1.59101213439329e+15,-1,1,-1,-2,0,0,1,0
1.59101213439329e+15,-1,-1,-2,0,-2,-2,-1,-4
1.59101213439421e+15,-1,-2,-1,-3,-3,-3,-2,-2
1.59101213439421e+15,-2,-1,-3,-2,-1,-1,-1,0
1.59101213441619e+15,-2,-1,0,-1,0,0,-1,-1
1.59101213441619e+15,-1,-1,-1,-1,-2,-2,-2,-1
1.59101213441715e+15,0,-1,-2,-3,1,1,2,-1
1.59101213441715e+15,-1,-1,-1,-2,-2,-2,-3,-1
1.59101213443012e+15,-1,-2,-3,-2,-2,-2,-1,-2
1.59101213443012e+15,1,-1,-2,-3,-3,-3,-1,-3
1.5910121344381e+15,-2,-1,1,0,-1,-1,-4,-4
1.5910121344381e+15,-1,-0,-1,-2,0,0,-1,0
1.59101213446111e+15,-1,-1,-2,0,0,0,-1,0
1.59101213446111e+15,0,-0,-1,0,0,0,1,1
1.59101213446203e+15,-1,-0,1,2,-2,-2,-3,-1
1.59101213446203e+15,-1,-0,0,-2,-1,-1,0,2
1.591012134477e+15,-1,-1,0,-1,-2,-2,-1,-2
1.591012134477e+15,1,-0,-2,-1,0,0,-4,0
1.59101213448305e+15,-1,-0,0,1,0,0,-1,-2
1.59101213448305e+15,-1,-1,-1,0,-2,-2,0,0
1.59101213449195e+15,-1,-2,0,-2,-1,-1,-3,0
1.59101213449195e+15,-3,-2,0,-4,-2,-2,-1,-2
1.59101213449295e+15,1,-0,-1,1,-2,-2,-1,-2
1.59101213449295e+15,-1,-0,-2,1,1,1,-2,-2
1.5910121345129e+15,-1,-0,-2,-2,-1,-1,1,0
1.5910121345129e+15,-2,1,0,1,1,1,-1,-1
1.5910121345139e+15,-1,-1,-2,-2,0,0,-1,-1
1.5910121345139e+15,-1,-0,-2,-1,0,0,-1,-3
1.59101213453638e+15,-2,-0,-2,-1,-1,-1,-1,-1
1.59101213453638e+15,-3,-1,-2,-2,-2,-2,0,1
1.59101213453736e+15,-3,-1,0,-1,-2,-2,1,0
1.59101213453736e+15,-1,-1,-2,-3,-2,-2,-2,-1
1.5910121345504e+15,0,-0,-1,-3,-1,-1,-3,-1
1.5910121345504e+15,-1,-2,-2,-1,-1,-1,-1,-3
1.59101213455132e+15,2,-0,-1,-1,-1,-1,1,0
1.59101213455132e+15,0,-1,-1,1,-1,-1,-2,-3
1.59101213457327e+15,-1,-2,-1,0,-2,-2,-3,-4
1.59101213457327e+15,-1,-0,-2,-3,-2,-2,2,1
1.59101213457426e+15,-2,-1,0,-1,0,0,-3,-1
1.59101213457426e+15,-2,-1,0,0,-1,-1,-1,-2
1.59101213459637e+15,-2,-1,-1,0,0,0,-2,-2
1.59101213459637e+15,0,1,0,1,0,0,-1,-2
1.59101213459732e+15,0,-1,-3,-2,-1,-1,0,0
1.59101213459732e+15,-2,-1,-1,-2,-2,-2,-2,1
1.59101213461029e+15,-2,-0,0,-2,0,0,-2,0
1.59101213461029e+15,-2,1,0,0,1,1,0,1
1.59101213461129e+15,-1,-0,-2,0,-1,-1,0,-1
1.59101213461129e+15,-2,-1,-1,-1,-2,-2,-1,-2
1.59101213463323e+15,-1,-1,-2,-3,-2,-2,-1,0
1.59101213463323e+15,0,-1,-1,-3,-2,-2,-3,-2
1.59101213463422e+15,-3,-0,1,-1,0,0,1,0
1.59101213463422e+15,-1,-1,-1,0,0,0,-1,-2
1.59101213465619e+15,-3,-0,1,-1,-1,-1,0,-1
1.59101213465619e+15,1,-1,-1,-1,-1,-1,-2,-1
1.59101213465716e+15,0,-0,-1,-1,-1,-1,-2,-3
1.59101213465716e+15,0,-1,-2,-3,-2,-2,0,-1
1.59101213467014e+15,0,1,-2,-1,0,0,0,1
1.59101213467014e+15,-2,-2,-2,-3,-2,-2,-2,-1
1.59101213467212e+15,-1,-1,-3,-2,0,0,-3,-3
1.59101213467212e+15,0,1,0,-1,1,1,3,1
1.59101213469368e+15,-1,-0,-2,-1,0,0,-2,-1
1.59101213469368e+15,0,1,1,1,-1,-1,0,0
1.59101213469368e+15,1,-0,-1,1,0,0,-2,-1
1.59101213469368e+15,-2,-1,-2,-1,-2,-2,-3,-2
1.5910121347158e+15,-3,-1,-3,-2,-1,-1,1,0
1.5910121347158e+15,-1,-0,0,-2,-1,-1,0,-2
1.59101213471676e+15,-1,-1,0,-1,-1,-1,-1,-2
1.59101213471676e+15,-2,-0,3,0,0,0,-2,-2
1.59101213472973e+15,-2,-1,-2,-2,-1,-1,-3,-2
1.59101213472973e+15,0,-0,-3,0,-1,-1,0,-2
1.59101213473873e+15,0,1,0,0,0,0,3,0
1.59101213473873e+15,-3,-2,-1,-3,-4,-4,-3,-2
1.59101213476065e+15,-2,-1,1,0,-1,-1,-2,-1
1.59101213476065e+15,-2,-1,-1,-2,0,0,-2,-2
1.59101213476863e+15,-2,-1,-2,-1,-2,-2,1,-1
1.59101213476863e+15,0,-0,-2,-2,0,0,0,-3
1.59101213479256e+15,0,-1,-1,-2,-2,-2,0,-4
1.59101213479256e+15,0,-1,-2,1,0,0,-2,-3
1.59101213479256e+15,-3,-1,-2,-3,1,1,-1,0
1.59101213479256e+15,-1,-0,-1,-1,-2,-2,1,2
1.59101213479456e+15,-2,-1,0,-2,-1,-1,1,-3
1.59101213479456e+15,-1,-1,-1,-1,-1,-1,-3,-1
1.59101213479855e+15,0,-1,-1,-2,-3,-3,-2,-2
1.59101213479855e+15,0,-1,-2,-1,-1,-1,0,-1
1.59101213482149e+15,-1,-0,0,0,1,1,-2,-2
1.59101213482149e+15,0,-1,-1,-2,-2,-2,0,-1
1.59101213482248e+15,0,-0,0,-1,-2,-2,0,-1
1.59101213482248e+15,-2,-1,-2,-1,-2,-2,-3,-2
1.59101213483645e+15,0,-1,-1,-2,-2,-2,-1,-1
1.59101213483645e+15,-2,-0,0,-1,-1,-1,-2,-1
1.59101213483749e+15,-3,-0,-2,-1,0,0,1,-2
1.59101213483749e+15,-1,-0,-1,1,-2,-2,-2,1
1.59101213485041e+15,-2,-0,0,-2,-1,-1,0,-2
1.59101213485041e+15,0,-0,-2,-2,0,0,-1,1
1.59101213485839e+15,0,1,-1,-1,0,0,1,1
1.59101213485839e+15,-4,-2,-2,-1,1,1,-1,-4
1.59101213487335e+15,-2,-2,-1,0,-3,-3,-3,0
1.59101213487335e+15,-2,-1,0,-2,-1,-1,0,-1
1.59101213487435e+15,-1,1,0,1,1,1,-1,0
1.59101213487435e+15,1,-1,-3,-2,-1,-1,-3,0
1.59101213489704e+15,-2,-0,-2,-1,-2,-2,0,1
1.59101213489704e+15,-2,-0,1,-3,-1,-1,1,0
1.59101213489801e+15,-1,-1,0,-1,-1,-1,-2,0
1.59101213489801e+15,0,1,1,0,-1,-1,0,-1
1.59101213492593e+15,-1,-1,-1,-1,-3,-3,-1,-1
1.59101213492593e+15,-2,-1,-2,-1,-3,-3,-1,-1
1.59101213492692e+15,-3,-2,-3,-1,-1,-1,-1,-1
1.59101213492692e+15,0,-0,-3,1,0,0,1,2
1.5910121349329e+15,-1,-1,-1,1,-1,-1,-1,-2
1.5910121349329e+15,-1,-1,-1,-1,0,0,-2,-2
1.5910121349339e+15,1,-0,-2,0,-1,-1,-2,0
1.5910121349339e+15,-2,-1,0,-2,-1,-1,-1,-2
1.59101213496382e+15,-1,-1,-2,-1,0,0,-1,0
1.59101213496382e+15,0,-1,-1,-2,0,0,-2,-2
1.59101213496482e+15,0,-0,2,-1,-1,-1,-3,0
1.59101213496482e+15,-2,-1,-2,-3,-1,-1,1,0
1.59101213496984e+15,-1,-1,0,-1,-2,-2,-1,-4
1.59101213496984e+15,0,-0,-2,0,0,0,-1,-2
1.59101213497793e+15,-3,-1,-1,-1,-2,-2,0,-1
1.59101213497793e+15,1,-0,1,-2,-2,-2,0,0
1.59101213499374e+15,0,-1,-1,-4,0,0,-1,0
1.59101213499374e+15,-1,-1,-2,0,-2,-2,-1,-3
1.59101213499374e+15,0,-1,0,-2,-1,-1,-1,-1
1.59101213499374e+15,-2,-1,-2,0,-1,-1,-1,-1
1.59101213501719e+15,-3,-1,-2,-2,-2,-2,-2,0
1.59101213501719e+15,0,-0,-1,-2,-2,-2,1,-1
1.59101213501819e+15,0,-1,-3,-1,-1,-1,-1,0
1.59101213501819e+15,-1,-0,1,-1,-1,-1,-1,-1
1.59101213503016e+15,-2,-1,-1,0,-2,-2,1,0
1.59101213503016e+15,-1,-0,-3,1,-2,-2,-1,0
1.59101213503813e+15,-1,-1,-1,0,-2,-2,-1,-1
1.59101213503813e+15,0,1,-1,-1,1,1,1,0
1.59101213505409e+15,-1,-1,-2,-1,-2,-2,-3,-2
1.59101213505409e+15,-3,-2,-2,-1,-1,-1,-3,-4
1.59101213506107e+15,-1,-0,-1,1,0,0,0,0
1.59101213506107e+15,-1,-1,-1,-4,-1,-1,-2,-1
1.59101213507606e+15,-2,-1,0,-3,0,0,-1,-1
1.59101213507606e+15,-2,-0,-1,1,-1,-1,-1,-1
1.59101213507703e+15,-1,-1,-2,0,-1,-1,-1,-1
1.59101213507703e+15,1,-0,-1,2,-2,-2,-1,-1
1.591012135099e+15,-1,-0,0,1,-2,-2,-3,0
1.591012135099e+15,-1,-1,-2,-3,0,0,0,0
1.59101213509997e+15,-2,-1,1,-1,-1,-1,-1,-2
1.59101213509997e+15,-2,-0,0,0,0,0,0,-2
1.5910121351212e+15,-1,-1,0,0,-1,-1,0,-1
1.5910121351212e+15,-1,-1,0,-2,-1,-1,-3,0
1.59101213512191e+15,-1,-0,-1,-1,0,0,-1,1
1.59101213512191e+15,-1,-1,-3,-1,-1,-1,-2,-3
1.59101213513597e+15,-2,-1,-3,-4,0,0,-2,-2
1.59101213513597e+15,-1,1,0,-1,-1,-1,2,0
1.59101213513687e+15,-1,-0,-1,1,0,0,0,-1
1.59101213513687e+15,-1,-1,-1,-2,-1,-1,-1,-1
1.59101213515987e+15,0,-0,-1,-3,-1,-1,2,0
1.59101213515987e+15,-1,-1,0,-1,-3,-3,-1,-1
1.59101213515987e+15,0,-1,1,-2,-1,-1,-2,0
1.59101213515987e+15,-1,-0,0,0,0,0,-3,-1
1.59101213518179e+15,-1,-0,-2,-1,-1,-1,-2,-1
1.59101213518179e+15,-1,-0,-2,0,0,0,0,0
1.59101213518179e+15,0,-0,-1,0,-2,-2,-1,0
1.59101213518179e+15,-2,-1,1,-1,0,0,-3,-2
1.59101213519613e+15,-1,-1,0,-3,-2,-2,-2,-3
1.59101213519613e+15,-2,-1,-1,-1,-1,-1,-4,-3
1.59101213519713e+15,-3,-2,-2,-3,-4,-4,0,-2
1.59101213519713e+15,0,-0,-1,-2,-2,-2,0,3
1.59101213521906e+15,0,-1,-3,0,-2,-2,-2,-1
1.59101213521906e+15,0,1,0,-1,-2,-2,-1,1
1.59101213522608e+15,-2,-0,0,0,2,2,-2,-2
1.59101213522608e+15,0,-0,0,-1,-2,-2,-1,-1
1.59101213523303e+15,-2,-0,-1,-1,0,0,-1,0
1.59101213523303e+15,1,-0,-2,-1,0,0,0,0
1.59101213523402e+15,1,1,0,-2,-1,-1,0,1
1.59101213523402e+15,-2,-1,-2,1,-1,-1,-1,-4
1.59101213525596e+15,-1,-1,-2,-2,0,0,-1,-1
1.59101213525596e+15,-1,-1,-1,-1,-1,-1,-1,-2
1.59101213525692e+15,-1,-0,-1,-1,-1,-1,-1,-1
1.59101213525692e+15,-1,-1,-3,0,-1,-1,-3,-2
1.59101213528684e+15,0,-1,1,-1,-2,-2,-2,-3
1.59101213528684e+15,-1,-0,-1,-1,2,2,1,-2
1.59101213528684e+15,1,-0,-1,-1,-2,-2,0,-2
1.59101213528684e+15,-3,-2,0,-1,0,0,0,-2
1.59101213529287e+15,0,-1,-1,-1,-1,-1,-1,-3
1.59101213529287e+15,-1,-1,-1,0,-1,-1,1,-2
1.59101213529382e+15,-1,-2,-3,-1,-1,-1,-6,-3
1.59101213529382e+15,0,-0,1,-1,-1,-1,-2,0
1.59101213531776e+15,-1,-1,-1,0,-2,-2,0,0
1.59101213531776e+15,0,-1,-2,-3,-2,-2,-2,0
1.59101213531876e+15,-1,-1,-3,-2,-2,-2,1,1
1.59101213531876e+15,-2,-1,-2,0,-1,-1,0,-2
1.59101213533875e+15,-2,-1,-3,0,0,0,0,-1
1.59101213533875e+15,-2,-1,-1,-2,-3,-3,0,0
1.5910121353397e+15,-2,-1,-1,-1,-2,-2,-1,-2
1.5910121353397e+15,-1,-1,-1,-4,-2,-2,-4,1
1.5910121353527e+15,0,-0,0,1,0,0,0,-1
1.5910121353527e+15,-2,-0,0,1,1,1,0,-3
1.59101213535366e+15,0,-1,-1,-2,-1,-1,-3,0
1.59101213535366e+15,-1,-2,-2,-2,-3,-3,-1,1
1.5910121353766e+15,-2,-1,-1,-3,-1,-1,0,-3
1.5910121353766e+15,1,-1,-2,-2,-1,-1,-2,-2
1.5910121353776e+15,-1,-0,1,-1,0,0,-2,-1
1.5910121353776e+15,0,-1,-1,-1,-2,-2,1,-1
1.59101213539979e+15,-2,1,0,2,0,0,1,-2
1.59101213539979e+15,1,-0,-2,-1,-2,-2,0,0
1.59101213540054e+15,-2,-0,0,-2,0,0,2,0
1.59101213540054e+15,-3,-1,-1,0,-2,-2,-1,0
1.59101213542253e+15,-1,-0,-2,-1,-1,-1,0,1
1.59101213542253e+15,-2,-1,-1,0,-1,-1,-2,-2
1.59101213542851e+15,-3,-0,-1,1,-1,-1,-1,-1
1.59101213542851e+15,-2,-0,-2,-1,1,1,-1,0
1.59101213543644e+15,-1,-1,-2,-1,0,0,-3,0
1.59101213543644e+15,0,-0,-2,-1,-1,-1,0,-2
1.59101213543744e+15,1,-0,-2,0,-2,-2,-3,2
1.59101213543744e+15,-1,-1,-1,-2,-2,-2,0,-2
1.59101213545938e+15,-2,-1,-1,-1,-1,-1,-3,-4
1.59101213545938e+15,-1,-1,-1,0,1,1,-4,0
1.59101213545938e+15,-2,-1,-3,-2,-1,-1,0,-1
1.59101213545938e+15,0,1,1,-1,-1,-1,1,1
1.59101213547339e+15,-1,-1,-2,-2,-3,-3,-1,0
1.59101213547339e+15,-2,-1,-1,-2,0,0,1,-1
1.59101213548032e+15,-1,-1,-2,-1,-2,-2,-3,-4
1.59101213548032e+15,0,-0,1,-2,0,0,-3,-2
1.59101213549734e+15,-3,1,0,2,-1,-1,1,-2
1.59101213549734e+15,-2,-1,-1,0,-2,-2,-5,-3
1.59101213549734e+15,0,1,0,1,-1,-1,2,2
1.59101213549734e+15,-1,-0,-2,-1,1,1,-2,-1
1.59101213551925e+15,0,-1,0,-1,-1,-1,-1,-1
1.59101213551925e+15,-2,-1,-2,-3,-1,-1,1,-1
1.59101213551925e+15,1,-1,-1,-1,-1,-1,-2,0
1.59101213551925e+15,-1,-2,-2,-2,-2,-2,-1,-1
1.59101213553319e+15,0,-1,-2,-2,0,0,0,-1
1.59101213553319e+15,0,-1,-2,-1,-2,-2,-1,0
1.59101213553418e+15,0,-0,-2,-2,0,0,0,-2
1.59101213553418e+15,-2,-1,-2,-1,-1,-1,-2,-3
1.59101213555615e+15,-1,-1,-2,-3,-3,-3,-2,-2
1.59101213555615e+15,0,1,1,1,0,0,4,1
1.59101213555712e+15,-1,-1,0,-1,-1,-1,-1,-2
1.59101213555712e+15,0,-1,-2,-2,0,0,-3,0
1.59101213559501e+15,-1,-1,0,-2,-1,-1,-2,-2
1.59101213559501e+15,-1,-1,-2,0,-1,-1,-1,-2
1.59101213559601e+15,0,-0,-1,-2,-1,-1,-1,2
1.59101213559601e+15,-1,1,1,1,0,0,0,0
1.59101213559801e+15,2,-0,-1,-3,-1,-1,-3,3
1.59101213559801e+15,0,-0,-1,-1,-1,-1,-1,-2
1.59101213560101e+15,-1,-1,-1,-1,-1,-1,-3,-2
1.59101213560101e+15,-1,-2,-2,-4,-2,-2,-2,-2
1.59101213561596e+15,0,-0,-1,0,-2,-2,0,-1
1.59101213561596e+15,-1,-1,-1,-1,-2,-2,-1,0
1.59101213561695e+15,-1,-0,-1,-2,1,1,1,1
1.59101213561695e+15,-3,-3,-2,-4,-2,-2,-3,-1
1.59101213563891e+15,0,-0,0,1,0,0,-1,-2
1.59101213563891e+15,-1,-0,-1,0,0,0,-3,-2
1.59101213563989e+15,0,-0,0,1,-1,-1,-1,1
1.59101213563989e+15,0,-0,-1,-2,-1,-1,-2,-1
1.59101213565289e+15,-2,-1,-2,-2,-1,-1,-2,-2
1.59101213565289e+15,0,-0,-2,-1,0,0,-1,-3
1.59101213566084e+15,-1,-0,-2,-1,1,1,-1,0
1.59101213566084e+15,-2,-1,0,-1,-1,-1,-1,-2
1.5910121356758e+15,-1,-1,0,-1,-2,-2,-2,-1
1.5910121356758e+15,-1,-0,1,-2,0,0,-2,-1
1.5910121356768e+15,-3,-1,-1,-2,-1,-1,-1,-3
1.5910121356768e+15,-2,-1,0,-2,-2,-2,-1,-1
1.59101213569973e+15,-3,-1,-2,-1,1,1,-1,-1
1.59101213569973e+15,-1,-0,0,-2,-1,-1,0,0
1.59101213570073e+15,-2,-1,-2,1,0,0,-1,-2
1.59101213570073e+15,-1,-1,-1,-2,-1,-1,-1,-3
1.5910121357127e+15,-2,-0,0,0,-2,-2,-1,1
1.5910121357127e+15,0,-0,-1,0,0,0,0,-2
1.59101213572069e+15,-1,-2,-3,-5,-3,-3,-3,-4
1.59101213572069e+15,1,-0,-3,1,0,0,-1,-3
1.59101213573663e+15,0,-1,-1,-2,1,1,-2,-3
1.59101213573663e+15,-1,-0,0,-2,-2,-2,0,1
1.59101213573764e+15,-1,-0,1,1,-1,-1,0,0
1.59101213573764e+15,-3,-0,0,1,-1,-1,-1,-1
1.59101213575871e+15,-2,-1,-3,-3,0,0,0,-3
1.59101213575871e+15,-1,-0,0,1,-2,-2,-1,-2
1.59101213575957e+15,-2,-1,-1,-1,-2,-2,-3,-1
1.59101213575957e+15,-1,-2,-2,-2,-2,-2,-1,0
1.59101213577269e+15,-2,-0,0,-2,0,0,2,2
1.59101213577269e+15,-1,-0,-2,-2,-1,-1,1,-1
1.59101213578853e+15,-4,-2,-1,0,-1,-1,-4,-4
1.59101213578853e+15,0,-1,-1,-2,-1,-1,-1,0
1.59101213579648e+15,0,-0,-1,1,-1,-1,-1,-3
1.59101213579648e+15,2,-0,-1,-1,-2,-2,0,-1
1.59101213579747e+15,0,1,1,0,0,0,1,1
1.59101213579747e+15,-1,-0,-3,-1,-1,-1,-2,0
1.59101213581842e+15,-1,-0,0,1,0,0,-1,0
1.59101213581842e+15,0,-0,1,1,0,0,-1,0
1.59101213582041e+15,-1,-1,-1,-1,-1,-1,-1,-1
1.59101213582041e+15,-2,-2,-2,-1,-3,-3,-3,-4
1.59101213583247e+15,0,1,0,-2,-1,-1,4,2
1.59101213583247e+15,-1,-1,-1,-1,-3,-3,-2,-2
1.59101213584934e+15,-1,-1,-1,-1,0,0,-1,-2
1.59101213584934e+15,-1,-0,-2,-2,0,0,1,0
1.59101213585632e+15,-3,-2,-2,-2,0,0,-3,-2
1.59101213585632e+15,-1,1,0,2,-1,-1,-2,2
1.59101213585831e+15,0,-0,0,-2,-2,-2,-1,1
1.59101213585831e+15,-1,-0,-2,-2,-2,-2,-1,-3
1.59101213587826e+15,-2,-1,-1,0,-1,-1,-1,-2
1.59101213587826e+15,-1,-1,-1,-2,0,0,-2,-2
1.59101213588624e+15,-1,-1,-1,1,-1,-1,-2,-2
1.59101213588624e+15,-3,-1,0,1,-1,-1,-1,-1
1.59101213589228e+15,-1,-2,-2,0,-4,-4,-2,-2
1.59101213589228e+15,-2,-1,-3,-5,-1,-1,0,-1
1.59101213590122e+15,0,-0,0,-2,1,1,0,0
1.59101213590122e+15,0,-0,0,-3,0,0,0,-2
1.59101213591715e+15,0,-0,-1,-1,-1,-1,0,-2
1.59101213591715e+15,-1,-1,-2,0,-1,-1,-1,-1
1.59101213591815e+15,-2,-1,-2,-2,-2,-2,0,0
1.59101213591815e+15,-1,-0,-2,-1,0,0,1,0
1.5910121359392e+15,1,-1,1,-4,-1,-1,0,0
1.5910121359392e+15,1,-0,-1,-1,-1,-1,-1,-2
1.59101213594122e+15,0,-0,-1,0,-1,-1,0,-3
1.59101213594122e+15,-1,-1,-4,-2,-2,-2,1,-3
1.59101213595306e+15,-2,-0,-1,0,-1,-1,-3,-2
1.59101213595306e+15,1,-0,-1,0,0,0,-2,-1
1.59101213596118e+15,-1,-1,-2,-1,-2,-2,-2,-1
1.59101213596118e+15,0,-1,-2,-3,0,0,-3,-1
1.59101213597709e+15,0,-0,-1,-1,-2,-2,-1,-1
1.59101213597709e+15,-1,-0,0,-1,0,0,2,1
1.59101213597903e+15,-2,-0,-3,-2,-1,-1,1,1
1.59101213597903e+15,-2,-1,-1,-1,-1,-1,-3,-3
1.59101213599893e+15,0,-1,-1,-3,-2,-2,1,-1
1.59101213599893e+15,0,-1,-3,-1,-2,-2,-1,-1
1.59101213600093e+15,2,-1,-2,-1,-1,-1,-5,-3
1.59101213600093e+15,-1,-1,-1,-3,-1,-1,1,1
1.59101213602189e+15,-3,-0,-2,1,0,0,0,-2
1.59101213602189e+15,-1,-1,-2,-1,-2,-2,-3,-1
1.59101213602287e+15,-1,-1,0,-1,-2,-2,0,-1
1.59101213602287e+15,-2,-1,0,-2,-1,-1,-4,0
1.59101213603683e+15,0,-0,-1,-2,-2,-2,-2,0
1.59101213603683e+15,-1,-0,0,0,1,1,-1,-2
1.59101213603783e+15,-1,-0,-2,1,0,0,0,0
1.59101213603783e+15,-2,-2,-2,-2,0,0,-2,-2
1.59101213605881e+15,0,-0,-1,0,-1,-1,-1,-3
1.59101213605881e+15,-1,-1,-1,-1,-3,-3,-2,0
1.59101213606077e+15,-1,-1,-2,-2,0,0,0,-1
1.59101213606077e+15,0,1,0,3,0,0,-1,1
1.59101213608181e+15,-1,-1,-2,-1,-2,-2,-1,-1
1.59101213608181e+15,-3,-0,-2,1,-1,-1,0,1
1.59101213608371e+15,-1,-1,-1,-1,-2,-2,-1,-2
1.59101213608371e+15,-1,-1,-2,-1,-1,-1,-3,-2
1.59101213609679e+15,-1,-0,-1,-1,-2,-2,-1,-1
1.59101213609679e+15,0,1,-1,-4,0,0,3,2
1.59101213609767e+15,0,1,1,0,0,0,-1,-2
1.59101213609767e+15,-1,-0,-1,-1,-2,-2,-1,0
1.59101213611864e+15,-2,-1,-1,0,-1,-1,-2,-2
1.59101213611864e+15,-1,-1,-1,-1,-1,-1,-2,-3
1.59101213612659e+15,-3,-1,0,-3,0,0,-1,-1
1.59101213612659e+15,1,-0,-2,-1,-1,-1,1,-1
1.59101213614853e+15,-1,-0,-1,-2,-1,-1,-1,-1
1.59101213614853e+15,-1,-1,-2,0,-2,-2,-3,-1
1.59101213615053e+15,0,-1,-1,-1,-1,-1,-1,-1
1.59101213615053e+15,-3,-1,-1,-1,-2,-2,-1,-2
1.59101213615558e+15,-2,-0,-2,-3,-1,-1,0,-1
1.59101213615558e+15,-1,-0,0,-2,0,0,-2,-1
1.5910121361625e+15,-1,-0,0,0,1,1,-1,-2
1.5910121361625e+15,-2,-0,-1,0,-2,-2,2,-1
1.59101213617849e+15,-2,-1,-2,0,0,0,-3,-1
1.59101213617849e+15,0,-0,-1,0,-2,-2,-1,-1
1.59101213618045e+15,0,-1,-1,-2,0,0,-4,0
1.59101213618045e+15,-1,-0,1,-1,-1,-1,-1,0
1.59101213620143e+15,0,-0,-1,-3,-1,-1,0,0
1.59101213620143e+15,0,1,0,1,-1,-1,1,2
1.59101213620738e+15,0,1,1,-2,0,0,-1,0
1.59101213620738e+15,-2,-1,-1,-3,-1,-1,0,-3
1.59101213621539e+15,-1,-1,0,-1,-3,-3,-1,-3
1.59101213621539e+15,-1,-1,-1,0,-1,-1,-2,-3
1.59101213623035e+15,0,-1,-3,-3,-3,-3,1,1
1.59101213623035e+15,-1,-0,0,0,-1,-1,-1,-1
1.59101213623929e+15,0,-0,0,1,1,1,-1,-2
1.59101213623929e+15,-3,-0,1,-1,-1,-1,-2,0
1.59101213624029e+15,-2,-1,-1,-1,-1,-1,-1,-2
1.59101213624029e+15,0,-1,-2,-2,-2,-2,3,-2
1.59101213626123e+15,0,-2,-2,-2,-2,-2,-6,-3
1.59101213626123e+15,0,-0,0,1,0,0,-2,-2
1.59101213626921e+15,-2,-0,1,0,-1,-1,-2,-1
1.59101213626921e+15,-2,-1,-3,0,-2,-2,-4,0
1.5910121362752e+15,-2,-1,-1,-4,-1,-1,-1,0
1.5910121362752e+15,-1,1,-1,-1,0,0,0,3
1.59101213628219e+15,-2,-1,-2,-2,-3,-3,-1,-1
1.59101213628219e+15,-1,-0,0,0,0,0,-1,-1
1.59101213629914e+15,-2,-1,-3,-1,-2,-2,-2,0
1.59101213629914e+15,-1,-2,-1,-3,-2,-2,-1,-3
1.59101213630013e+15,-1,-0,-1,0,-3,-3,-1,-1
1.59101213630013e+15,-1,-0,-2,0,0,0,0,0
1.59101213632108e+15,-2,-1,-2,-2,-1,-1,1,0
1.59101213632108e+15,-2,-0,-1,-1,0,0,-2,-1
1.59101213632307e+15,-1,-0,-1,-2,-1,-1,-1,1
1.59101213632307e+15,-2,-2,-1,-2,-2,-2,-3,-2
1.59101213633704e+15,-1,-1,-2,-2,-2,-2,0,-2
1.59101213633704e+15,0,-1,-1,0,-1,-1,-2,-1
1.59101213634202e+15,0,-0,0,0,0,0,-1,-1
1.59101213634202e+15,0,-1,1,0,-2,-2,-4,-2
1.59101213635897e+15,-1,-0,-1,0,0,0,3,0
1.59101213635897e+15,-2,-1,0,-3,-1,-1,-2,-2
1.59101213636097e+15,-1,-1,-2,-1,-2,-2,-1,0
1.59101213636097e+15,0,-0,-1,0,-1,-1,-1,-2
1.59101213638193e+15,0,-0,-1,-2,-2,-2,0,0
1.59101213638193e+15,-2,-0,-2,-1,-1,-1,1,-1
1.59101213638292e+15,0,-1,-2,-1,-2,-2,0,0
1.59101213638292e+15,-1,-0,1,-1,1,1,0,-1
1.59101213639588e+15,-1,-0,1,-1,0,0,-1,-1
1.59101213639588e+15,0,-1,-2,-2,-1,-1,-1,-1
1.59101213640286e+15,0,-0,0,-2,0,0,0,0
1.59101213640286e+15,-1,-1,-1,-1,-2,-2,0,-1
1.59101213641981e+15,-2,-2,-1,-1,-2,-2,-3,-4
1.59101213641981e+15,-1,-0,0,0,-1,-1,-1,-2
1.59101213642081e+15,-1,-0,-3,-1,0,0,0,-2
1.59101213642081e+15,-1,-2,-2,-4,-3,-3,-4,-1
1.59101213644175e+15,-1,1,0,-1,2,2,1,0
1.59101213644175e+15,-1,-1,-1,-1,-1,-1,-2,0
1.59101213644275e+15,-2,-1,-1,-1,-1,-1,-2,-1
1.59101213644275e+15,0,-1,-2,-2,-3,-3,-1,1
1.59101213645571e+15,2,1,-2,0,0,0,1,-1
1.59101213645571e+15,-2,-1,-2,0,-1,-1,-2,0
1.5910121364627e+15,-2,-1,-3,-3,-1,-1,-1,0
1.5910121364627e+15,-1,-0,-1,0,0,0,0,-3
1.59101213647967e+15,-1,-1,-2,-1,-2,-2,-2,-4
1.59101213647967e+15,-1,-0,-1,-1,-1,-1,2,-1
1.59101213648564e+15,-1,-0,0,-1,-1,-1,-2,-1
1.59101213648564e+15,-2,-1,-1,-2,1,1,0,-2
1.59101213650161e+15,1,-0,-1,-2,-1,-1,-2,-1
1.59101213650161e+15,-2,-2,-3,-4,-2,-2,-2,-3
1.59101213650259e+15,-1,-1,0,-3,-1,-1,-3,-2
1.59101213650259e+15,0,-0,0,-1,-3,-3,0,1
1.59101213651456e+15,-4,-0,-1,0,2,2,-3,-2
1.59101213651456e+15,0,-1,-3,-2,0,0,-2,0
1.59101213652354e+15,-3,-1,-2,-1,-3,-3,0,-2
1.59101213652354e+15,-2,-0,-1,0,0,0,0,-1
1.5910121365385e+15,-1,-0,0,0,-2,-2,0,-1
1.5910121365385e+15,-1,-1,0,-2,-3,-3,-4,-1
1.59101213655451e+15,-1,-1,0,-2,0,0,-1,-1
1.59101213655451e+15,-1,-2,-1,-3,0,0,-2,-3
1.59101213656145e+15,-2,-0,0,0,-2,-2,-2,1
1.59101213656145e+15,-2,-0,-1,-2,0,0,-3,0
1.59101213656742e+15,0,-0,-1,0,-3,-3,0,-2
1.59101213656742e+15,-2,-0,-1,-2,1,1,-2,-1
1.59101213657542e+15,1,1,-1,0,0,0,3,2
1.59101213657542e+15,2,-0,-1,-2,-2,-2,-1,0
1.59101213658437e+15,-2,-1,-1,-3,0,0,-2,-3
1.59101213658437e+15,-2,-0,-1,0,-1,-1,-1,-4
1.59101213660006e+15,-1,-0,0,0,-3,-3,2,0
1.59101213660006e+15,0,-0,-2,-1,0,0,0,-3
1.59101213660201e+15,0,-0,-1,-1,-1,-1,-2,-1
1.59101213660201e+15,-1,-0,-1,-3,0,0,-1,-1
1.591012136621e+15,1,-1,-1,-5,-1,-1,-4,-2
1.591012136621e+15,-1,-0,0,-1,-1,-1,0,0
1.59101213662296e+15,-1,-0,-1,0,-2,-2,0,3
1.59101213662296e+15,0,-1,-2,0,-2,-2,-1,-2
1.59101213663496e+15,-1,-0,-2,0,-1,-1,-1,-1
1.59101213663496e+15,-3,-0,-2,-2,1,1,-1,0
1.5910121366439e+15,-1,-1,-3,-1,-1,-1,-2,-4
1.5910121366439e+15,0,-1,0,0,-2,-2,-3,-4
1.59101213665891e+15,-1,-1,-1,0,-1,-1,0,-2
1.59101213665891e+15,-1,-1,0,-2,-3,-3,-2,-2
1.59101213666086e+15,0,-0,-1,-3,-2,-2,-1,1
1.59101213666086e+15,-2,-0,-2,1,-2,-2,-1,0
1.59101213668181e+15,-1,-0,0,-1,-1,-1,1,-1
1.59101213668181e+15,-1,-1,1,-1,0,0,-1,0
1.5910121366828e+15,0,-0,-1,-1,-1,-1,-1,-3
1.5910121366828e+15,-2,-0,0,-2,1,1,-1,-1
1.59101213669477e+15,1,-1,-2,-2,-1,-1,-1,-3
1.59101213669477e+15,-2,-1,-1,-1,0,0,-3,-2
1.59101213670374e+15,-2,1,0,1,-1,-1,1,2
1.59101213670374e+15,-1,-0,-1,1,-2,-2,0,-1
1.59101213671875e+15,1,-0,-1,0,0,0,2,0
1.59101213671875e+15,-1,-1,-1,-2,-3,-3,-1,-2
1.5910121367207e+15,0,-1,0,-2,-1,-1,-2,-2
1.5910121367207e+15,-1,-0,0,-2,0,0,-2,0
1.59101213674164e+15,-2,-1,0,-1,0,0,-3,-2
1.59101213674164e+15,-1,1,-2,1,-1,-1,2,0
1.59101213674264e+15,-3,-2,-2,-3,-1,-1,-3,0
1.59101213674264e+15,-1,-1,-1,-2,-2,-2,-1,-3
1.59101213675464e+15,0,-1,-2,-1,-2,-2,-3,-2
1.59101213675464e+15,-1,-0,-1,-3,1,1,-1,0
1.5910121367696e+15,-3,-2,0,-3,-2,-2,-2,-2
1.5910121367696e+15,1,-0,-2,1,-2,-2,1,1
1.59101213677954e+15,-3,-1,0,-1,0,0,-1,-1
1.59101213677954e+15,1,-0,0,2,-2,-2,-2,1
1.59101213678453e+15,-1,1,-2,-1,1,1,0,1
1.59101213678453e+15,-1,-1,-2,-2,0,0,-2,0
1.59101213680946e+15,-1,-1,0,-2,-1,-1,0,0
1.59101213680946e+15,-2,-1,-2,-1,-1,-1,-1,-1
1.59101213681146e+15,-1,-1,-1,-1,-2,-2,-1,-2
1.59101213681146e+15,-1,-0,0,-1,0,0,0,-2
1.59101213681545e+15,-2,-1,-1,0,-1,-1,-2,-2
1.59101213681545e+15,0,-0,-1,-1,0,0,2,0
1.59101213682442e+15,-2,-1,-1,-2,-2,-2,-2,-1
1.59101213682442e+15,-1,-0,-2,-1,-1,-1,1,0
1.59101213683844e+15,-1,-0,1,-1,0,0,0,-1
1.59101213683844e+15,-3,-0,-1,-2,0,0,-1,-1
1.59101213684638e+15,-1,-0,-1,-2,0,0,-1,-1
1.59101213684638e+15,-2,-1,-2,-2,0,0,2,-1
1.59101213686132e+15,0,-1,-1,-1,-1,-1,-4,-1
1.59101213686132e+15,0,-1,0,0,-2,-2,-3,-2
1.59101213686332e+15,-1,-1,0,-3,-1,-1,1,-1
1.59101213686332e+15,-1,-1,-1,-1,-3,-3,-3,-1
1.59101213687533e+15,-1,-1,-3,-3,-2,-2,1,1
1.59101213687533e+15,-1,-0,-1,0,-1,-1,-1,-1
1.59101213688426e+15,-2,-1,-1,-1,-1,-1,-2,-2
1.59101213688426e+15,0,-1,-1,-1,-1,-1,-4,-1
1.59101213689926e+15,1,1,-1,-1,0,0,0,1
1.59101213689926e+15,-2,-0,-1,1,-1,-1,1,-1
1.59101213690022e+15,-2,-0,0,1,0,0,-1,0
1.59101213690022e+15,-2,-1,-1,-2,-1,-1,0,-1
1.59101213692116e+15,-1,-1,-1,0,0,0,-2,-2
1.59101213692116e+15,-1,-1,0,-2,-2,-2,-1,-2
1.59101213692315e+15,-1,-1,-2,-1,-1,-1,-4,-1
1.59101213692315e+15,-2,-1,-1,-2,-3,-3,-1,-2
1.59101213695114e+15,0,-0,-2,-2,-2,-2,0,1
1.59101213695114e+15,-1,-0,-1,-1,-1,-1,2,-2
1.59101213695308e+15,-1,-1,-2,-2,-1,-1,-2,-3
1.59101213695308e+15,-2,-1,0,-2,-1,-1,0,-3
1.59101213695906e+15,0,-0,1,0,-1,-1,-1,0
1.59101213695906e+15,-2,-2,-2,-3,-1,-1,-3,-3
1.59101213696117e+15,-2,-1,-1,-4,-2,-2,0,-1
1.59101213696117e+15,1,1,-1,-1,-1,-1,1,2
1.59101213698101e+15,0,-0,0,0,-1,-1,-2,-2
1.59101213698101e+15,-2,-1,-3,-2,-3,-3,-2,0
1.59101213698299e+15,-2,-0,1,0,-1,-1,1,0
1.59101213698299e+15,1,-0,-1,-2,0,0,-1,-2
1.59101213700394e+15,-2,-0,1,1,-1,-1,0,-1
1.59101213700394e+15,1,-0,-2,0,0,0,-1,0
1.59101213701192e+15,-2,-1,-2,-1,0,0,-1,-2
1.59101213701192e+15,-1,-0,-3,-1,-1,-1,2,0
1.5910121370189e+15,-1,-0,-1,-1,-2,-2,0,1
1.5910121370189e+15,0,-0,-1,-2,-1,-1,-1,-1
1.5910121370209e+15,-1,-2,-2,-1,-2,-2,-3,-4
1.5910121370209e+15,-2,-1,-2,-3,0,0,-3,-1
1.59101213704184e+15,-2,-1,-2,0,1,1,-2,-3
1.59101213704184e+15,-1,-0,2,1,-1,-1,-1,-1
1.59101213704782e+15,0,-1,-2,-3,-2,-2,1,-2
1.59101213704782e+15,0,-0,-2,-1,0,0,-2,0
1.59101213706478e+15,1,1,-2,0,-1,-1,-2,1
1.59101213706478e+15,-3,-1,-1,-2,-1,-1,-1,0
1.59101213706577e+15,-2,-1,-1,1,-1,-1,-2,-2
1.59101213706577e+15,-2,-0,0,-1,0,0,-1,-2
1.59101213707878e+15,-2,-0,-2,-1,1,1,1,-1
1.59101213707878e+15,-1,-0,-2,-1,-1,-1,0,0
1.59101213708073e+15,-2,-1,-2,-2,-2,-2,-3,-1
1.59101213708073e+15,-2,1,0,-1,-2,-2,1,1
1.59101213710182e+15,-1,-1,0,-2,-3,-3,-1,-2
1.59101213710182e+15,-1,-2,-2,-2,-3,-3,-2,-2
1.59101213710267e+15,0,-0,-1,-1,-3,-3,1,-1
1.59101213710267e+15,-1,-1,-3,0,0,0,-3,-4
1.59101213712476e+15,-1,-1,-3,-3,-2,-2,-1,-1
1.59101213712476e+15,0,-0,0,-1,1,1,-1,-1
1.59101213713062e+15,-2,-1,-3,-1,0,0,-3,-1
1.59101213713062e+15,-5,-0,1,-1,-1,-1,0,0
1.59101213713864e+15,1,-1,-1,-1,-3,-3,0,1
1.59101213713864e+15,-2,-1,0,-1,-2,-2,1,-1
1.59101213714465e+15,-1,-1,-1,-2,1,1,-1,-1
1.59101213714465e+15,0,-2,-3,-2,-1,-1,-4,-4
1.59101213716862e+15,0,-0,-2,-2,2,2,-2,-3
1.59101213716862e+15,-1,-0,-1,-2,1,1,1,-1
1.59101213717049e+15,0,-0,0,1,-2,-2,-2,0
1.59101213717049e+15,0,-0,-1,-3,-1,-1,1,0
1.59101213719146e+15,-2,-0,-1,0,0,0,0,-1
1.59101213719146e+15,0,-0,-1,-2,0,0,-2,-1
1.59101213719349e+15,-2,-1,-1,0,-1,-1,0,-1
1.59101213719349e+15,0,-1,-1,-1,-1,-1,-2,-1
1.59101213719853e+15,0,-0,-1,-2,1,1,-1,-2
1.59101213719853e+15,-3,-1,0,-1,0,0,-1,1
1.59101213720547e+15,-2,-1,1,-3,-1,-1,0,-1
1.59101213720547e+15,-2,-0,1,1,-2,-2,-2,-1
1.59101213722934e+15,-1,-0,-1,-1,-2,-2,-1,0
1.59101213722934e+15,1,-1,-5,-1,-1,-1,-2,0
1.5910121372354e+15,-1,-1,-2,-3,-1,-1,-1,-2
1.5910121372354e+15,-1,-1,-1,-1,0,0,-2,0
1.59101213724438e+15,-1,-0,-1,-2,1,1,0,1
1.59101213724438e+15,1,-1,0,-2,-2,-2,-2,-3
1.59101213725036e+15,1,-1,-3,-3,0,0,-1,-3
1.59101213725036e+15,-2,-1,-1,-1,-2,-2,-2,-2
1.59101213725833e+15,0,-1,-2,-3,0,0,0,-1
1.59101213725833e+15,-2,-1,-1,-3,-2,-2,-2,-2
1.59101213726524e+15,-2,-1,0,-2,-1,-1,0,-3
1.59101213726524e+15,-2,-0,0,-1,-1,-1,-1,0
1.59101213728228e+15,-3,-2,-1,-2,-3,-3,-2,-1
1.59101213728228e+15,-2,-0,-2,-1,-2,-2,0,1
1.59101213728319e+15,-2,-0,2,-2,-1,-1,0,-1
1.59101213728319e+15,-1,-2,-2,-1,-2,-2,-1,-3
1.59101213730414e+15,-2,-1,-2,1,-1,-1,-3,-2
1.59101213730414e+15,-2,-0,-1,0,2,2,0,-2
1.59101213730513e+15,-1,-1,-1,-1,-2,-2,-3,-3
1.59101213730513e+15,-1,-2,-4,-3,-3,-3,0,-2
1.59101213731817e+15,0,-0,0,1,0,0,-2,0
1.59101213731817e+15,-2,-1,-3,-3,-2,-2,-1,0
1.59101213732517e+15,-3,-1,-2,-3,-1,-1,0,-1
1.59101213732517e+15,-2,-2,0,-3,-3,-3,-1,-2
1.59101213734111e+15,-1,-1,0,-1,0,0,-2,-1
1.59101213734111e+15,-2,-1,0,-1,-1,-1,-2,-1
1.59101213734303e+15,-2,1,-1,2,-2,-2,-1,2
1.59101213734303e+15,-1,-2,-3,-3,-2,-2,0,-1
1.591012137365e+15,-1,1,1,1,-2,-2,-1,-1
1.591012137365e+15,0,-0,-1,-1,1,1,0,-1
1.59101213736597e+15,-2,-0,-2,-1,1,1,-1,-1
1.59101213736597e+15,-1,-1,0,-1,1,1,-2,-1
1.59101213737798e+15,1,-1,-3,-1,-1,-1,-3,-2
1.59101213737798e+15,0,-0,-1,0,-1,-1,0,-1
1.591012137385e+15,-2,-1,-1,0,-1,-1,-1,-4
1.591012137385e+15,0,-1,-3,-1,-1,-1,0,0
1.59101213740088e+15,-1,-1,-1,-1,-3,-3,-3,-2
1.59101213740088e+15,-1,-1,-1,-2,-2,-2,-2,0
1.59101213740793e+15,0,-1,-3,-2,-2,-2,0,-2
1.59101213740793e+15,-1,-1,-1,0,-2,-2,-3,-3
1.59101213742389e+15,-3,-2,-1,-4,-1,-1,-1,-3
1.59101213742389e+15,-2,-1,-3,0,-2,-2,-3,-1
1.59101213742581e+15,0,-0,0,-2,0,0,0,-2
1.59101213742581e+15,-2,-1,-1,0,-2,-2,-1,-1
1.59101213743885e+15,0,-0,-3,-2,-1,-1,1,1
1.59101213743885e+15,-1,-0,0,0,-1,-1,2,-3
1.59101213744676e+15,1,-0,-1,-1,0,0,0,-1
1.59101213744676e+15,-1,-1,-1,-1,-1,-1,-2,-2
1.59101213746172e+15,-1,-1,-1,-1,-2,-2,-1,0
1.59101213746172e+15,1,-0,0,1,-2,-2,-3,-1
1.59101213746272e+15,-1,-0,-3,1,-1,-1,0,0
1.59101213746272e+15,-1,-0,-2,-2,0,0,-1,0
1.59101213748373e+15,0,-0,-1,-2,-2,-2,-1,1
1.59101213748373e+15,-2,-1,-1,-1,1,1,-2,-1
1.59101213748565e+15,-1,-1,-1,1,-1,-1,-2,0
1.59101213748565e+15,-1,-0,-2,1,-1,-1,1,-1
1.59101213749764e+15,-1,-0,0,0,-1,-1,-2,0
1.59101213749764e+15,-1,-0,-1,-1,-1,-1,-1,1
1.59101213751358e+15,-1,-1,-2,-2,-1,-1,-1,-1
1.59101213751358e+15,-2,-0,0,-1,-2,-2,-1,-2
1.59101213752857e+15,0,-1,-2,-1,-2,-2,-1,-1
1.59101213752857e+15,-2,-1,-1,0,-2,-2,-2,-1
1.59101213753053e+15,-2,-0,0,-1,0,0,-1,0
1.59101213753053e+15,1,-1,-1,-2,-2,-2,-1,0
1.59101213754358e+15,-1,-0,-2,-2,-1,-1,0,-1
1.59101213754358e+15,0,-1,-2,-3,-1,-1,-1,-1
1.59101213754549e+15,-1,-2,-3,-3,-2,-2,-3,-3
1.59101213754549e+15,0,-0,0,0,0,0,0,-1
1.59101213757441e+15,-4,-1,-2,-1,-1,-1,0,-3
1.59101213757441e+15,-1,1,2,2,-2,-2,-3,0
1.59101213757541e+15,0,-0,-2,-2,1,1,-3,-1
1.59101213757541e+15,-1,-0,0,-2,0,0,-2,-1
1.5910121375814e+15,-1,1,-2,0,-1,-1,0,2
1.5910121375814e+15,-1,-1,-2,-2,-1,-1,-3,0
1.59101213758339e+15,0,-0,0,-1,-2,-2,0,0
1.59101213758339e+15,0,-0,0,0,0,0,-1,2
1.59101213760436e+15,-1,-0,1,-2,-1,-1,-1,-2
1.59101213760436e+15,-2,-2,-3,-3,-2,-2,-2,-1
1.59101213760533e+15,0,-0,0,-1,-1,-1,-1,0
1.59101213760533e+15,0,-1,-2,0,0,0,-1,-2
1.59101213761738e+15,1,1,-1,0,-1,-1,0,0
1.59101213761738e+15,-2,-0,-1,0,0,0,-1,-2
1.59101213762628e+15,-2,-1,0,0,-1,-1,-2,-3
1.59101213762628e+15,1,-1,-1,-1,-2,-2,-2,0
1.59101213764228e+15,-2,-1,0,-3,0,0,-3,-2
1.59101213764228e+15,-3,-1,-1,-2,-1,-1,-1,-1
1.59101213764722e+15,-1,-0,-3,-2,-1,-1,-1,1
1.59101213764722e+15,0,-0,0,-1,-1,-1,0,-1
1.59101213766417e+15,-3,-1,0,-1,-1,-1,-3,-2
1.59101213766417e+15,-3,-1,-2,1,-1,-1,-2,-3
1.59101213766617e+15,-1,-0,-2,-2,-2,-2,-2,0
1.59101213766617e+15,-1,-0,-1,-2,0,0,-1,-3
1.59101213767714e+15,0,-1,-1,-2,-1,-1,-3,-1
1.59101213767714e+15,-1,-1,0,-1,-1,-1,0,-2
1.59101213768721e+15,0,-1,-1,0,-2,-2,0,0
1.59101213768721e+15,-1,-0,-1,-2,-1,-1,-1,1
1.59101213770121e+15,0,-0,-1,-1,0,0,-1,-1
1.59101213770121e+15,-1,-1,-2,-3,0,0,-1,-2
1.59101213770307e+15,-2,-0,0,1,-1,-1,-2,-3
1.59101213770307e+15,-2,-0,-2,-2,-1,-1,3,0
1.59101213772401e+15,-2,-1,1,-4,-2,-2,-5,-2
1.59101213772401e+15,-2,-1,-2,-1,-2,-2,-3,0
1.59101213773002e+15,0,-1,-2,-2,1,1,0,1
1.59101213773002e+15,-1,-1,-1,1,-2,-2,-4,0
1.59101213773798e+15,2,2,0,0,1,1,2,-1
1.59101213773798e+15,-1,-2,0,-3,-2,-2,-1,-3
1.59101213774695e+15,2,-0,-1,-2,-2,-2,-1,-1
1.59101213774695e+15,0,-1,-1,0,-2,-2,-3,-2
1.59101213776095e+15,-2,-0,0,-2,-3,-3,0,1
1.59101213776095e+15,-1,-1,-1,-1,-1,-1,-1,-1
1.59101213776291e+15,-3,-0,2,-1,-1,-1,1,-2
1.59101213776291e+15,1,-0,0,1,0,0,0,-1
1.5910121377839e+15,-2,-0,0,0,0,0,0,-1
1.5910121377839e+15,-3,-1,0,-2,-1,-1,-2,-2
1.59101213778585e+15,-2,-1,-1,1,-3,-3,-2,0
1.59101213778585e+15,-1,-1,-1,-2,0,0,-3,-1
1.59101213779787e+15,-2,-0,-2,-1,1,1,-3,-1
1.59101213779787e+15,-2,-2,-2,-2,-2,-2,-2,-1
1.59101213781278e+15,-1,-1,-1,-1,0,0,0,-3
1.59101213781278e+15,-1,-0,-3,-1,0,0,4,2
1.59101213782175e+15,0,-1,-2,1,0,0,-1,-2
1.59101213782175e+15,-1,-1,-3,-3,-1,-1,-1,-1
1.59101213782275e+15,1,-0,-1,1,-1,-1,-2,-4
1.59101213782275e+15,1,-0,1,-2,1,1,-2,-2
1.59101213784279e+15,0,-0,-2,-1,-2,-2,1,-1
1.59101213784279e+15,-1,-0,-2,-1,-1,-1,-1,0
1.59101213785167e+15,-1,-1,-3,-1,0,0,0,0
1.59101213785167e+15,-2,-0,-1,-2,-1,-1,-2,1
1.59101213785772e+15,-3,-1,-1,-1,-2,-2,-2,0
1.59101213785772e+15,-2,-1,-1,-1,-2,-2,-2,-2
1.59101213786664e+15,-3,-2,-3,-1,-3,-3,-1,0
1.59101213786664e+15,2,-0,0,2,0,0,0,-1
1.59101213788159e+15,1,-1,-1,-1,-2,-2,-1,0
1.59101213788159e+15,-1,-1,-2,-1,0,0,0,0
1.59101213788259e+15,-2,-1,-1,0,-1,-1,0,-2
1.59101213788259e+15,-2,-1,0,0,-1,-1,0,-1
1.5910121379036e+15,-1,-1,-1,-1,-1,-1,-2,0
1.5910121379036e+15,1,-1,-3,-1,-1,-1,-1,-1
1.59101213790555e+15,-2,-1,-1,-3,-1,-1,0,1
1.59101213790555e+15,1,-1,-2,-1,0,0,0,-1
1.59101213792745e+15,-1,-1,-1,-2,0,0,-2,-1
1.59101213792745e+15,-2,-1,-2,-1,-2,-2,-2,-2
1.59101213792845e+15,0,-1,0,-4,-1,-1,-2,-3
1.59101213792845e+15,-2,-1,0,-1,-2,-2,-1,-1
1.59101213794256e+15,0,1,-1,1,-1,-1,0,0
1.59101213794256e+15,-2,-1,-1,0,-2,-2,-2,-1
1.5910121379444e+15,-1,1,1,-1,0,0,0,0
1.5910121379444e+15,0,-0,-1,1,-1,-1,-1,-2
1.59101213796438e+15,-4,-2,-2,-1,-2,-2,-2,-1
1.59101213796438e+15,-1,-0,0,-2,0,0,2,1
1.59101213796535e+15,-1,-0,-1,-2,-1,-1,0,-2
1.59101213796535e+15,-1,-1,1,0,-1,-1,-3,-2
1.59101213798651e+15,-1,-1,-1,-3,-2,-2,-2,-1
1.59101213798651e+15,-1,-0,-1,0,0,0,0,-2
1.59101213798848e+15,-2,-1,-2,-1,-1,-1,-1,-3
1.59101213798848e+15,-1,-1,-2,-3,-2,-2,-1,-3
1.59101213800145e+15,-1,-1,-2,-2,-3,-3,0,0
1.59101213800145e+15,0,-0,0,-1,0,0,1,-2
1.59101213800346e+15,2,-0,-2,1,-1,-1,0,-1
1.59101213800346e+15,-3,-1,-1,-2,-2,-2,-2,-1
1.59101213802404e+15,-2,-1,-3,-1,0,0,0,-1
1.59101213802404e+15,-1,-2,-1,-4,-3,-3,-5,-1
1.59101213802589e+15,-2,-1,0,-1,-2,-2,-2,-2
1.59101213802589e+15,0,-0,-2,-1,-1,-1,-1,1
1.59101213804684e+15,0,-0,-1,-1,-1,-1,1,-2
1.59101213804684e+15,-2,-1,-2,-3,-2,-2,0,-4
1.59101213804784e+15,-1,-1,0,0,0,0,-2,-1
1.59101213804784e+15,0,-1,-1,-4,-1,-1,-1,-2
1.59101213806086e+15,-1,1,1,0,2,2,1,-1
1.59101213806086e+15,-1,-0,-1,0,0,0,-1,2
1.59101213806878e+15,-1,-1,-4,-1,-1,-1,-2,1
1.59101213806878e+15,-6,-1,-1,-1,1,1,0,-1
1.59101213808285e+15,-1,-1,2,1,-2,-2,-1,-2
1.59101213808285e+15,0,-0,-1,-1,0,0,0,-2
1.59101213809183e+15,0,-0,0,-2,-2,-2,-2,-1
1.59101213809183e+15,-1,-0,-1,-2,-1,-1,2,1
1.59101213811384e+15,-2,-2,-2,-2,-2,-2,-4,0
1.59101213811384e+15,-1,-1,-2,-1,0,0,-2,-2
1.59101213811576e+15,-2,-1,-1,-1,-1,-1,0,0
1.59101213811576e+15,0,-1,-2,1,-1,-1,-2,-1
1.59101213812077e+15,1,-1,-3,-3,-2,-2,-2,-2
1.59101213812077e+15,-1,-1,0,-4,-2,-2,0,-2
1.59101213812778e+15,-3,-2,-1,-3,-2,-2,-1,-3
1.59101213812778e+15,0,-0,1,-2,-1,-1,0,-1
1.59101213814374e+15,-1,1,0,1,0,0,2,0
1.59101213814374e+15,-1,-2,-1,-1,-1,-1,-2,-3
1.59101213814569e+15,1,-0,-1,-2,-2,-2,1,1
1.59101213814569e+15,-1,-0,-1,0,-1,-1,-1,0
1.59101213816668e+15,-2,-1,-3,-2,-1,-1,-1,-2
1.59101213816668e+15,-1,-1,-3,-2,-2,-2,0,1
1.59101213817284e+15,-1,-0,0,-3,-1,-1,0,-2
1.59101213817284e+15,0,-1,-2,-1,-2,-2,-2,1
1.59101213818059e+15,-1,-0,1,1,0,0,-3,-2
1.59101213818059e+15,-1,1,0,1,0,0,2,0
1.59101213818762e+15,-1,-1,-2,-1,-1,-1,0,-1
1.59101213818762e+15,0,-0,-1,-1,1,1,-1,-1
1.59101213820457e+15,-3,-1,-1,-1,-3,-3,-2,-2
1.59101213820457e+15,-2,-1,0,-1,-2,-2,-2,-1
1.59101213820553e+15,0,-1,-3,-1,-1,-1,0,-1
1.59101213820553e+15,0,-1,-2,-2,-1,-1,-2,-1
1.59101213822649e+15,-1,-1,-2,-1,-2,-2,0,-1
1.59101213822649e+15,-3,-2,-1,-1,-1,-1,-4,-2
1.59101213824147e+15,-2,-1,-1,-1,-2,-2,0,-2
1.59101213824147e+15,0,1,-1,-1,1,1,1,3
1.59101213824243e+15,-1,-1,0,-1,-1,-1,-1,0
1.59101213824243e+15,0,-1,0,-1,-3,-3,-1,-2
1.59101213825545e+15,0,-0,-2,-1,-1,-1,-1,-1
1.59101213825545e+15,0,-0,-1,0,-1,-1,-1,-1
1.59101213826437e+15,2,1,-1,-1,0,0,0,0
1.59101213826437e+15,-3,-0,-1,1,-1,-1,0,-2
1.59101213828745e+15,0,-0,-1,0,-2,-2,-2,-2
1.59101213828745e+15,1,-1,0,1,-2,-2,-3,-2
1.59101213828837e+15,1,-1,-2,-3,-1,-1,0,1
1.59101213828837e+15,-1,-1,-2,-2,-2,-2,0,0
1.5910121382893e+15,0,-1,-1,-2,0,0,-2,-1
1.5910121382893e+15,-3,-2,-1,-1,-2,-2,-2,-1
1.59101213830127e+15,0,-1,1,-1,-1,-1,-5,-3
1.59101213830127e+15,0,1,-1,0,2,2,2,1
1.59101213830711e+15,-2,-1,-1,-2,0,0,-4,-1
1.59101213830711e+15,0,-1,-1,-3,-1,-1,-1,-3
1.59101213832405e+15,-3,-1,0,-3,-2,-2,-2,-2
1.59101213832405e+15,0,-1,-3,0,-3,-3,-2,-4
1.59101213832592e+15,-1,-0,-1,0,-3,-3,2,0
1.59101213832592e+15,-2,-1,-3,-2,-1,-1,-2,-2
1.59101213835384e+15,0,-0,0,0,-1,-1,-1,-1
1.59101213835384e+15,-1,-3,-3,-4,-3,-3,-3,-3
1.59101213836986e+15,-2,-2,-1,-2,-3,-3,-3,-2
1.59101213836986e+15,-1,-1,0,-2,-1,-1,-1,-2
1.5910121383708e+15,0,-0,-3,0,-2,-2,1,-3
1.5910121383708e+15,0,1,0,-1,0,0,1,0
1.59101213837484e+15,2,-1,-2,0,-2,-2,0,-2
1.59101213837484e+15,-2,-1,-2,1,0,0,-1,-2
1.59101213839972e+15,-2,-1,-2,-2,-2,-2,0,2
1.59101213839972e+15,-1,-1,-1,-3,-2,-2,-4,0
1.59101213840732e+15,-3,-1,1,-2,-1,-1,-1,-3
1.59101213840732e+15,-1,-1,-1,-1,0,0,-1,-1
1.5910121384083e+15,-2,-1,-4,-1,0,0,-2,0
1.5910121384083e+15,-1,-1,0,1,-1,-1,-2,-2
1.59101213840927e+15,-3,-0,0,1,1,1,-1,0
1.59101213840927e+15,-1,-0,0,1,-2,-2,-3,1
1.59101213842024e+15,-3,-1,-2,-2,-1,-1,-1,0
1.59101213842024e+15,0,1,-1,-1,0,0,-1,1
1.59101213843524e+15,-1,-0,-3,0,0,0,1,-1
1.59101213843524e+15,-2,-0,-1,-2,-1,-1,-1,-1
1.59101213844423e+15,-2,-1,-1,-2,-1,-1,-1,-2
1.59101213844423e+15,-2,-1,-1,-2,-2,-2,-2,-2
1.59101213844518e+15,-1,-1,-3,-1,0,0,0,-3
1.59101213844518e+15,-2,-1,-1,0,0,0,-1,-2
1.59101213846745e+15,-1,1,1,1,-1,-1,2,-1
1.59101213846745e+15,-1,-0,-2,0,-1,-1,-1,-2
1.59101213846823e+15,1,1,0,0,0,0,-1,-1
1.59101213846823e+15,-2,-1,-1,0,-2,-2,-2,-1
1.5910121384802e+15,0,-1,-1,-2,-2,-2,-2,0
1.5910121384802e+15,-1,-1,-2,-1,0,0,0,0
1.59101213848918e+15,-1,-0,-1,1,-1,-1,-1,-1
1.59101213848918e+15,1,-1,-2,0,-2,-2,-2,0
1.59101213850431e+15,-1,-0,-1,0,0,0,-1,0
1.59101213850431e+15,0,-0,-2,-2,-2,-2,-1,1
1.59101213850513e+15,0,-0,1,-1,0,0,-3,-2
1.59101213850513e+15,-1,-0,1,-2,0,0,4,0
1.59101213852612e+15,0,-1,-1,-4,-1,-1,-2,1
1.59101213852612e+15,-2,-1,-2,-2,-1,-1,0,-1
1.59101213852807e+15,-1,-1,-3,-1,-2,-2,1,-1
1.59101213852807e+15,-1,-0,-1,0,1,1,-1,0
1.5910121385401e+15,0,-0,-1,0,-1,-1,0,-1
1.5910121385401e+15,-2,-1,0,-1,0,0,-1,-2
1.59101213854902e+15,-1,-1,-2,-2,-2,-2,-2,1
1.59101213854902e+15,0,-0,-2,-1,0,0,-1,-1
1.59101213856397e+15,-2,-1,-2,-2,-3,-3,-2,0
1.59101213856397e+15,1,-0,-1,1,-1,-1,-1,-1
1.59101213857001e+15,0,-1,-1,-1,-4,-4,-2,-2
1.59101213857001e+15,-1,-1,0,0,-1,-1,-3,-2
1.59101213859394e+15,-1,-0,-1,-1,-1,-1,0,-2
1.59101213859394e+15,0,-0,-1,-2,0,0,-1,-1
1.59101213859589e+15,-2,-0,0,-4,-1,-1,0,-2
1.59101213859589e+15,-2,-0,1,-1,0,0,-3,-1
1.59101213859998e+15,0,-0,-1,-1,0,0,-1,0
1.59101213859998e+15,-2,-0,-2,0,-1,-1,-2,1
1.59101213860886e+15,-2,-0,-1,1,0,0,-1,-1
1.59101213860886e+15,-1,-0,-1,-1,-3,-3,1,-1
1.59101213862503e+15,0,-0,-1,-2,-1,-1,0,-1
1.59101213862503e+15,-1,-1,-2,-2,-1,-1,-3,-3
1.5910121386298e+15,0,-1,-2,-3,-1,-1,-1,1
1.5910121386298e+15,-1,-0,-3,-1,0,0,0,0
1.59101213864677e+15,-3,-2,-3,-2,-1,-1,-1,-2
1.59101213864677e+15,1,-0,-1,-1,-2,-2,1,-3
1.59101213864776e+15,0,1,0,-1,0,0,0,0
1.59101213864776e+15,-1,-0,-1,-1,0,0,0,-1
1.59101213865972e+15,-2,-1,-2,-1,0,0,-3,-2
1.59101213865972e+15,-2,-1,-1,-2,-2,-2,0,-1
1.59101213866969e+15,-1,-0,-1,3,-1,-1,0,0
1.59101213866969e+15,-1,-0,-2,-2,-2,-2,-2,3
1.59101213868373e+15,-2,-1,-1,1,0,0,-3,-2
1.59101213868373e+15,-3,-2,-3,-2,0,0,-3,-3
1.59101213868565e+15,1,-1,-1,-4,-2,-2,-1,-1
1.59101213868565e+15,0,-1,0,0,-1,-1,-2,-3
1.59101213870659e+15,-1,-1,-1,-3,-2,-2,0,-1
1.59101213870659e+15,-2,-0,0,0,-1,-1,-1,0
1.59101213871358e+15,-1,-0,0,0,0,0,0,-3
1.59101213871358e+15,-1,-1,-3,-2,-2,-2,-2,-2
1.59101213872953e+15,-1,-1,-2,-3,-1,-1,-1,0
1.59101213872953e+15,1,1,-3,-1,0,0,1,0
1.59101213873452e+15,-1,-1,-3,0,-2,-2,-1,-1
1.59101213873452e+15,0,-0,0,-1,-2,-2,-1,1
1.59101213874458e+15,-1,-0,0,0,-1,-1,0,1
1.59101213874458e+15,0,-1,1,1,-3,-3,-3,-2
1.59101213874549e+15,-1,1,-1,-1,1,1,2,-1
1.59101213874549e+15,-2,-2,-4,-3,-2,-2,0,-4
1.59101213876746e+15,-1,-1,-1,-1,-3,-3,-1,-4
1.59101213876746e+15,0,-1,-1,-4,-2,-2,-2,-1
1.59101213877242e+15,1,-0,-2,-3,-1,-1,-3,-1
1.59101213877242e+15,-1,-0,1,0,1,1,-1,-1
1.59101213878056e+15,-3,-2,-2,-3,-2,-2,-2,-3
1.59101213878056e+15,-2,-2,-1,-4,-1,-1,-3,-4
1.59101213878937e+15,-2,-0,-2,1,-1,-1,2,1
1.59101213878937e+15,-1,-2,-3,-3,-2,-2,-3,-1
1.59101213880455e+15,-2,-0,-1,-1,1,1,0,-1
1.59101213880455e+15,-1,-1,1,-2,0,0,-2,-2
1.59101213880533e+15,-2,-0,-2,0,0,0,0,-1
1.59101213880533e+15,0,-0,-1,-2,-2,-2,-2,2
1.59101213882751e+15,-3,-2,0,-2,-2,-2,-4,-1
1.59101213882751e+15,-1,-0,0,3,-2,-2,-1,0
1.59101213883327e+15,-1,-1,1,-2,-1,-1,-2,-2
1.59101213883327e+15,-1,-0,-2,-1,-2,-2,-1,0
1.59101213884924e+15,0,-1,-3,-3,-1,-1,-2,-2
1.59101213884924e+15,-1,-0,-1,0,-1,-1,1,1
1.5910121388503e+15,1,-0,2,0,-2,-2,-2,-2
1.5910121388503e+15,-4,-1,0,0,-1,-1,0,-1
1.59101213887218e+15,-1,-0,0,0,-2,-2,-2,1
1.59101213887218e+15,-3,-1,-3,-3,-2,-2,1,-1
1.59101213887315e+15,-1,-0,1,1,0,0,-3,-1
1.59101213887315e+15,0,-0,-1,-1,-1,-1,0,1
1.59101213888614e+15,0,-1,-2,-2,-1,-1,-2,-3
1.59101213888614e+15,0,1,-1,-1,1,1,3,1
1.59101213888811e+15,1,-0,-3,-2,-1,-1,-1,-2
1.59101213888811e+15,-2,-2,-1,-3,-2,-2,-1,-4
1.59101213891005e+15,-1,-1,-2,-1,-2,-2,-2,-1
1.59101213891005e+15,-1,-0,-1,1,-2,-2,-3,1
1.5910121389151e+15,-1,-0,0,-1,1,1,-2,-3
1.5910121389151e+15,-2,-0,-2,1,-3,-3,-1,-1
1.59101213892401e+15,-4,-1,-1,-1,-2,-2,0,0
1.59101213892401e+15,-1,-1,-2,-1,-1,-1,-1,-2
1.59101213892999e+15,0,1,-2,-1,1,1,2,0
1.59101213892999e+15,0,1,0,-2,0,0,-1,-1
1.59101213894749e+15,-2,-1,-2,-1,-1,-1,-2,-3
1.59101213894749e+15,-1,-0,-1,-2,-2,-2,-1,1
1.59101213894846e+15,-1,-1,-1,-1,-1,-1,-2,-1
1.59101213894846e+15,0,-1,0,-1,0,0,-1,-2
1.5910121389694e+15,1,-0,0,-1,-1,-1,-1,0
1.5910121389694e+15,0,-1,-3,-2,-2,-2,-1,2
1.5910121389714e+15,0,-0,-1,-2,-1,-1,-1,-4
1.5910121389714e+15,-1,-1,-2,-2,0,0,-2,-2
1.59101213898351e+15,-1,-1,-1,-1,-1,-1,0,-2
1.59101213898351e+15,-3,-0,0,1,-1,-1,-2,-3
1.59101213898536e+15,-1,-1,-1,-2,-2,-2,-2,1
1.59101213898536e+15,-2,-0,-1,-1,1,1,-1,1
1.5910121390073e+15,-1,-0,-2,-1,-1,-1,-2,-2
1.5910121390073e+15,1,-0,-2,-1,-1,-1,0,-2
1.5910121390083e+15,-1,-0,0,0,-1,-1,0,-1
1.5910121390083e+15,-2,-1,0,-1,-2,-2,-1,-1
1.59101213902928e+15,-1,-0,0,-1,-1,-1,-1,2
1.59101213902928e+15,-1,-2,-2,-3,-1,-1,-2,-3
1.59101213903127e+15,1,-0,0,-1,-1,-1,0,0
1.59101213903127e+15,0,1,-1,1,0,0,0,-1
1.5910121390432e+15,-1,-1,-2,-2,-1,-1,-3,-3
1.5910121390432e+15,-2,-1,-1,-3,-2,-2,-2,-2
1.59101213905019e+15,-2,-1,0,-2,-1,-1,0,0
1.59101213905019e+15,0,-0,-1,0,-2,-2,0,0
1.59101213907435e+15,-1,-0,-1,-1,-3,-3,0,0
1.59101213907435e+15,-2,-1,-2,-2,-1,-1,-2,0
1.59101213907512e+15,-4,-1,-2,0,-1,-1,-4,-2
1.59101213907512e+15,-1,1,-1,-1,3,3,1,1
1.59101213909607e+15,-1,1,0,1,-2,-2,-1,2
1.59101213909607e+15,0,-1,-1,-1,-2,-2,-2,-1
1.59101213909806e+15,-1,-1,-2,0,-1,-1,-2,0
1.59101213909806e+15,0,-1,-3,-2,-2,-2,0,-3
1.59101213910323e+15,-1,-1,-1,-1,-2,-2,0,-2
1.59101213910323e+15,0,-1,-1,-2,-1,-1,-5,-4
1.59101213911008e+15,0,-0,-2,-1,-4,-4,1,1
1.59101213911008e+15,-1,-0,1,-2,-2,-2,-2,-1
1.59101213912702e+15,-2,-0,-2,-1,0,0,0,-3
1.59101213912702e+15,-2,-0,-1,0,-1,-1,-2,-1
1.59101213912798e+15,-1,-0,1,-2,0,0,-1,-1
1.59101213912798e+15,-3,-0,-1,-2,-2,-2,-1,1
1.59101213914912e+15,-1,-1,-2,-1,-1,-1,0,0
1.59101213914912e+15,-2,-0,-1,-1,-1,-1,0,1
1.59101213915092e+15,0,-2,-2,-1,-2,-2,-6,-3
1.59101213915092e+15,-1,-0,-1,-2,-2,-2,1,2
1.59101213916289e+15,-1,-1,-2,-2,0,0,0,-1
1.59101213916289e+15,-2,-0,1,1,0,0,-1,-3
1.59101213916992e+15,-1,-1,-3,0,-1,-1,0,-2
1.59101213916992e+15,-1,-0,-1,0,-2,-2,-1,-3
1.59101213918584e+15,-1,-1,-2,-2,-1,-1,-6,-1
1.59101213918584e+15,-1,-1,-3,-3,-2,-2,1,-1
1.59101213919299e+15,-2,-1,-2,-2,-2,-2,-2,-2
1.59101213919299e+15,-2,-0,0,-1,-1,-1,-1,0
1.59101213920881e+15,-3,-1,-2,-2,-1,-1,1,-2
1.59101213920881e+15,-2,-1,-1,-2,-1,-1,-2,-1
1.59101213921076e+15,-1,-0,0,0,-1,-1,0,0
1.59101213921076e+15,0,-1,-2,0,0,0,-3,-2
1.59101213922372e+15,0,-0,0,0,0,0,0,-2
1.59101213922372e+15,-1,-1,-1,-3,-1,-1,0,-3
1.5910121392297e+15,0,-0,-3,-2,-3,-3,0,-1
1.5910121392297e+15,-2,-1,0,-1,0,0,-1,0
1.59101213924666e+15,-2,-2,-1,0,-3,-3,-4,-1
1.59101213924666e+15,-1,-2,-3,-1,-2,-2,-2,-2
1.59101213924767e+15,-1,-0,-1,-1,-1,-1,2,0
1.59101213924767e+15,0,-1,-1,-2,-1,-1,-3,-2
1.59101213926866e+15,-1,1,0,0,-2,-2,3,1
1.59101213926866e+15,-1,-0,-2,-1,0,0,-4,0
1.5910121392706e+15,-2,-1,0,-1,1,1,-3,-1
1.5910121392706e+15,-2,-1,1,0,-2,-2,-3,-2
1.59101213928375e+15,-2,-2,-2,-2,-3,-3,-1,-2
1.59101213928375e+15,1,1,0,-1,-2,-2,2,0
1.59101213929055e+15,0,-0,0,-1,0,0,-2,-1
1.59101213929055e+15,-1,-1,0,-2,0,0,-1,-1
1.5910121393065e+15,-1,-2,-3,-2,0,0,-2,-2
1.5910121393065e+15,0,-0,0,-1,-2,-2,0,1
1.59101213930849e+15,0,-1,-1,-1,-1,-1,-2,-1
1.59101213930849e+15,-1,-1,-3,-1,-3,-3,-2,1
1.59101213932944e+15,1,-1,-1,-4,-1,-1,0,-1
1.59101213932944e+15,-1,-1,-2,-2,-3,-3,1,-1
1.59101213934362e+15,0,1,-1,1,-1,-1,1,-1
1.59101213934362e+15,0,-0,-2,1,-2,-2,-3,-2
1.5910121393444e+15,0,-0,-1,-2,-1,-1,-1,0
1.5910121393444e+15,-2,-0,0,0,2,2,1,-2
1.59101213935138e+15,0,-0,0,-3,-1,-1,-3,0
1.59101213935138e+15,0,1,-1,-1,0,0,0,1
1.59101213936677e+15,-1,-1,-1,0,-1,-1,-2,-1
1.59101213936677e+15,-1,-0,0,0,-1,-1,0,-3
1.59101213936761e+15,-2,-0,-2,0,0,0,0,1
1.59101213936761e+15,-1,-1,-1,-2,-1,-1,-2,-3
1.59101213938974e+15,-2,-0,0,0,-2,-2,-1,0
1.59101213938974e+15,-2,-1,-2,-2,-2,-2,-2,0
1.59101213939155e+15,-2,-1,-1,-3,-1,-1,-1,1
1.59101213939155e+15,-1,-1,-3,-3,-1,-1,0,-1
1.59101213940267e+15,-2,-1,-2,-2,-1,-1,-1,0
1.59101213940267e+15,1,-0,0,-1,-1,-1,0,0
1.59101213942739e+15,0,-0,1,-1,0,0,0,0
1.59101213942739e+15,-1,-0,0,1,-1,-1,1,0
1.5910121394282e+15,-1,-0,-1,1,-1,-1,-2,0
1.5910121394282e+15,-2,-0,-1,0,0,0,0,-2
1.59101213943019e+15,-1,-0,-1,0,-1,-1,-2,-1
1.59101213943019e+15,-3,-1,-1,-3,-2,-2,-3,-1
1.59101213945014e+15,1,-0,-2,-1,-2,-2,-1,-3
1.59101213945014e+15,-1,-1,0,-2,-1,-1,-2,-2
1.59101213945512e+15,-3,-1,-3,-3,0,0,2,-2
1.59101213945512e+15,0,-0,-1,-1,0,0,-2,-1
1.59101213946211e+15,-2,-0,1,0,1,1,1,-2
1.59101213946211e+15,-1,-1,-1,-1,-1,-1,-3,-1
1.59101213947112e+15,-1,-0,0,-1,-2,-2,0,0
1.59101213947112e+15,-1,-1,-2,-1,-1,-1,-1,1
1.59101213948709e+15,0,-1,0,-3,-2,-2,-2,1
1.59101213948709e+15,0,1,0,2,0,0,0,-1
1.59101213948804e+15,-2,-1,0,-3,-3,-3,-3,-1
1.59101213948804e+15,-2,-1,-2,-3,-1,-1,-2,0
1.59101213951696e+15,0,-1,0,-1,0,0,-3,-2
1.59101213951696e+15,-2,-1,0,0,-1,-1,1,0
1.59101213951895e+15,-1,-1,-3,-1,-2,-2,-2,-1
1.59101213951895e+15,-2,-1,-2,-1,-1,-1,-1,-2
1.59101213952295e+15,-1,-0,-2,-1,0,0,0,-2
1.59101213952295e+15,-1,-1,-3,-3,0,0,-2,0
1.59101213953192e+15,-1,-0,0,-1,-1,-1,-2,-2
1.59101213953192e+15,-1,-0,-1,-3,-1,-1,0,-1
1.59101213954702e+15,-2,1,0,1,0,0,2,0
1.59101213954702e+15,-2,-1,-1,-2,-1,-1,1,-3
1.59101213954788e+15,-2,-2,-2,0,-4,-4,-4,-1
1.59101213954788e+15,-1,-1,-2,-3,0,0,-1,-1
1.59101213956908e+15,-2,-1,-1,0,-2,-2,0,-1
1.59101213956908e+15,-1,-2,-3,-2,-2,-2,-3,-2
1.59101213957081e+15,1,-1,-2,-2,-2,-2,-2,-1
1.59101213957081e+15,1,-0,1,-2,0,0,-1,1
1.59101213958304e+15,0,-0,-3,-2,0,0,-1,-1
1.59101213958304e+15,-1,-1,-2,-1,-2,-2,0,-1
1.59101213959176e+15,-2,-0,0,-1,0,0,-1,0
1.59101213959176e+15,-3,-1,-1,-1,-2,-2,-2,-2
1.59101213960695e+15,0,-1,-2,-2,-2,-2,-2,0
1.59101213960695e+15,0,-1,-1,-1,-1,-1,-2,-2
1.59101213960871e+15,1,-1,-1,-1,-1,-1,-2,-1
1.59101213960871e+15,-2,-0,-1,0,-1,-1,0,-2
1.59101213962866e+15,-3,-0,0,-1,-1,-1,-1,-2
1.59101213962866e+15,1,1,0,2,0,0,-1,-1
1.59101213963065e+15,-2,-1,-2,-1,0,0,-2,-2
1.59101213963065e+15,-2,-0,0,0,-1,-1,0,-2
1.59101213964272e+15,1,-1,0,-3,-3,-3,-2,0
1.59101213964272e+15,0,-0,-1,0,0,0,-1,-1
1.5910121396516e+15,-2,-0,-1,-1,0,0,0,0
1.5910121396516e+15,-1,-0,-2,1,0,0,-2,0
1.59101213966656e+15,-1,-0,-1,-1,-1,-1,0,0
1.59101213966656e+15,-1,-1,-1,-2,-2,-2,-1,0
1.59101213966855e+15,-1,-0,-1,-3,-2,-2,2,-1
1.59101213966855e+15,-1,-1,-3,-2,-2,-2,0,-1
1.59101213968957e+15,-1,-1,-1,-1,0,0,-3,-2
1.59101213968957e+15,-2,-1,0,-1,-2,-2,-2,0
1.5910121396955e+15,-1,-0,0,0,0,0,0,-2
1.5910121396955e+15,-1,-1,-1,-1,-3,-3,-1,0
1.59101213970255e+15,1,-0,0,2,0,0,-1,-1
1.59101213970255e+15,-3,-0,0,-2,-2,-2,-1,-1
1.59101213971144e+15,1,-0,-2,-1,-1,-1,-2,0
1.59101213971144e+15,-1,-1,0,-3,1,1,-2,-1
1.59101213972739e+15,0,1,1,-2,0,0,0,1
1.59101213972739e+15,0,-2,-2,-1,0,0,-4,-3
1.59101213972839e+15,-2,-0,1,-2,0,0,2,0
1.59101213972839e+15,0,-1,-1,-1,-1,-1,-4,-1
1.59101213974936e+15,-2,-1,-1,0,-2,-2,-1,-2
1.59101213974936e+15,1,-0,-2,1,-2,-2,1,0
1.59101213975033e+15,0,-0,1,0,-2,-2,-2,-2
1.59101213975033e+15,-2,-1,-1,-1,-2,-2,-3,-2
1.59101213976231e+15,-3,-1,-1,-1,0,0,-2,-2
1.59101213976231e+15,0,-0,-2,-3,-2,-2,1,2
1.59101213977131e+15,1,-0,0,1,0,0,-2,-1
1.59101213977131e+15,-3,-1,-2,-2,-1,-1,-1,-1
1.59101213978627e+15,-1,-0,-3,0,-1,-1,-1,-2
1.59101213978627e+15,-2,-2,-3,-1,-1,-1,-4,-3
1.59101213978823e+15,-1,-0,-2,0,-1,-1,-1,-2
1.59101213978823e+15,0,-1,-1,-3,-2,-2,-2,-1
1.59101213980946e+15,0,-1,0,-1,-2,-2,-1,-3
1.59101213980946e+15,1,1,0,-2,1,1,1,0
1.59101213981018e+15,-3,-1,-2,-2,1,1,-1,-1
1.59101213981018e+15,-1,-1,1,-1,0,0,-1,-3
1.59101213983235e+15,-1,-0,-1,-2,-1,-1,0,0
1.59101213983235e+15,1,-0,-1,0,-1,-1,0,-1
1.5910121398391e+15,-2,-1,-1,-2,-1,-1,-3,-1
1.5910121398391e+15,-2,-1,-2,-3,-1,-1,-1,-2
1.59101213984608e+15,-1,-0,1,0,0,0,-1,-1
1.59101213984608e+15,-2,-0,0,-1,0,0,0,0
1.59101213984807e+15,0,-1,-1,-4,-2,-2,-2,1
1.59101213984807e+15,0,-2,-2,-3,-1,-1,-1,-2
1.59101213986922e+15,-2,-1,-3,0,-1,-1,-1,-1
1.59101213986922e+15,-1,-1,-2,2,-1,-1,-2,-2
1.59101213987002e+15,0,-0,-1,0,-2,-2,2,1
1.59101213987002e+15,-1,-1,-1,-2,-1,-1,-2,-3
1.59101213989201e+15,-3,-1,-1,0,2,2,0,-2
1.59101213989201e+15,0,-1,0,-1,-1,-1,-1,0
1.59101213990592e+15,-1,-2,-1,-1,-3,-3,-5,-3
1.59101213990592e+15,0,-0,0,0,-2,-2,3,1
1.5910121399139e+15,1,-1,-2,-3,-3,-3,-1,-1
1.5910121399139e+15,0,-0,0,0,-1,-1,-3,-1
1.59101213991589e+15,-1,-0,-1,0,0,0,-1,1
1.59101213991589e+15,-2,-1,-1,-1,-2,-2,1,-1
1.59101213992886e+15,-2,-1,-3,1,-3,-3,-2,-1
1.59101213992886e+15,-1,-1,0,-4,-1,-1,0,-1
1.59101213993085e+15,-1,-1,-2,-2,-1,-1,-1,-3
1.59101213993085e+15,-1,-1,0,-2,-1,-1,-1,-1
1.59101213995183e+15,1,-0,0,-1,-2,-2,-1,-3
1.59101213995183e+15,0,-0,0,-1,-1,-1,-1,-1
1.59101213995379e+15,-2,1,1,2,1,1,1,1
1.59101213995379e+15,-2,-0,-2,-1,1,1,-1,-2
1.59101213996579e+15,-2,-1,-2,-3,0,0,-2,-1
1.59101213996579e+15,-1,-0,-1,1,-1,-1,-1,-2
1.59101213997278e+15,-1,-1,-1,-2,-1,-1,-2,-3
1.59101213997278e+15,-1,-0,-2,-1,-2,-2,0,0
1.59101213998891e+15,1,-0,0,-2,-2,-2,0,0
1.59101213998891e+15,-2,-0,0,0,-2,-2,0,0
1.59101213999069e+15,0,-0,-2,1,-1,-1,-1,0
1.59101213999069e+15,-3,-2,-2,0,-1,-1,-5,-4
1.59101214001164e+15,-2,-1,-1,-2,-1,-1,-1,0
1.59101214001164e+15,1,-0,-1,0,0,0,-2,-1
1.59101214001263e+15,-3,-2,-2,-1,-5,-5,-2,-3
1.59101214001263e+15,0,-0,-2,-1,-2,-2,0,0
1.59101214002614e+15,1,-2,-3,-1,-2,-2,-1,-2
1.59101214002614e+15,1,-0,-1,-2,0,0,-4,-1
1.59101214003219e+15,-2,-0,0,0,-1,-1,-1,-1
1.59101214003219e+15,-2,-0,-1,-1,-1,-1,-1,0
1.59101214004915e+15,-2,-1,-1,-1,-1,-1,-1,-1
1.59101214004915e+15,0,1,-1,-1,0,0,1,1
1.59101214005004e+15,-2,-0,0,-1,0,0,-1,-1
1.59101214005004e+15,-1,-1,-2,-1,-3,-3,-1,-3
1.59101214007118e+15,-1,-1,0,0,-2,-2,-2,-3
1.59101214007118e+15,-1,-1,-1,-2,-2,-2,-2,-2
1.59101214007298e+15,0,-0,-3,-3,0,0,2,1
1.59101214007298e+15,-1,-1,-2,-1,-1,-1,-2,0
1.59101214008597e+15,-1,-1,-2,-3,1,1,1,-2
1.59101214008597e+15,-2,-1,0,1,-2,-2,-4,-1
1.59101214009302e+15,-2,-0,-1,1,0,0,-2,0
1.59101214009302e+15,-1,-1,-1,-2,-2,-2,-1,-1
1.59101214010988e+15,-2,-2,-2,-2,-3,-3,-2,-1
1.59101214010988e+15,1,-1,-4,-2,0,0,1,-2
1.59101214011496e+15,1,-0,-2,-2,0,0,-1,0
1.59101214011496e+15,0,-1,-1,-1,-1,-1,-2,-3
1.59101214013182e+15,-5,-1,0,0,1,1,-3,-3
1.59101214013182e+15,-1,1,-1,0,0,0,2,2
1.59101214013282e+15,-1,-0,-1,0,-1,-1,-2,-2
1.59101214013282e+15,-2,-2,-2,-2,-1,-1,-1,-3
1.59101214014579e+15,0,-1,0,-2,-1,-1,-2,-1
1.59101214014579e+15,-2,-1,-1,0,0,0,-3,-3
1.59101214015286e+15,0,-0,-1,-2,0,0,2,0
1.59101214015286e+15,-3,-2,-1,-1,-1,-1,-2,-1
1.59101214016881e+15,2,-1,-2,-3,-2,-2,-1,-1
1.59101214016881e+15,-2,-0,1,-1,-3,-3,-2,-2
1.59101214017072e+15,-1,-1,-2,-2,-2,-2,0,1
1.59101214017072e+15,-1,-1,-2,-2,-1,-1,0,0
1.59101214019176e+15,-1,-0,-1,0,1,1,-1,-2
1.59101214019176e+15,0,-0,-2,0,-2,-2,-2,-1
1.59101214019366e+15,-2,1,2,-1,1,1,0,2
1.59101214019366e+15,0,1,2,-1,-1,-1,-1,-1
1.59101214020571e+15,-2,-1,0,-3,-2,-2,-2,-2
1.59101214020571e+15,0,-0,-1,-1,1,1,0,-1
1.59101214021261e+15,-2,-2,-2,-2,-3,-3,-2,-3
1.59101214021261e+15,-2,-1,-2,-2,2,2,-2,-1
1.59101214022857e+15,-2,-0,-3,0,-2,-2,0,0
1.59101214022857e+15,0,-0,-3,-2,-1,-1,-1,0
1.59101214023056e+15,0,-1,-2,-1,0,0,-2,-3
1.59101214023056e+15,0,-0,-1,0,-3,-3,1,-2
1.59101214025253e+15,-2,-1,0,0,-2,-2,0,-3
1.59101214025253e+15,-2,-1,-1,-1,0,0,-1,-1
1.5910121402535e+15,0,-0,-2,1,-1,-1,-2,1
1.5910121402535e+15,-1,-1,0,0,-2,-2,-2,0
1.59101214026554e+15,-1,-1,-2,-2,-2,-2,-1,-1
1.59101214026554e+15,-1,-1,-1,-1,-1,-1,0,-3
1.59101214028948e+15,-1,-1,0,-3,-1,-1,-3,-1
1.59101214028948e+15,1,-0,-3,-1,-1,-1,0,1
1.5910121402904e+15,0,-0,-1,1,-1,-1,-2,-2
1.5910121402904e+15,0,-0,0,-1,0,0,0,0
1.59101214029539e+15,-1,-1,-1,-1,-2,-2,-2,-2
1.59101214029539e+15,-2,-0,0,-4,0,0,1,1
1.59101214031196e+15,-1,-1,0,1,-1,-1,-6,0
1.59101214031196e+15,0,-1,-1,-1,-2,-2,-1,-2
1.59101214031794e+15,-2,-1,0,-2,-3,-3,-3,-2
1.59101214031794e+15,-1,-0,0,0,-1,-1,-1,-1
1.59101214032492e+15,-2,-1,-3,-1,0,0,1,-1
1.59101214032492e+15,-2,-1,-2,-1,-1,-1,-2,-1
1.5910121403339e+15,-2,-1,-1,-2,-1,-1,-2,-2
1.5910121403339e+15,-1,-0,-2,0,0,0,-2,-1
1.59101214034886e+15,0,-0,-1,-1,0,0,-1,0
1.59101214034886e+15,1,-0,-3,-2,0,0,-1,3
1.59101214035086e+15,-1,-0,-2,-1,1,1,-2,0
1.59101214035086e+15,-1,-1,-1,0,-2,-2,-4,0
1.59101214037201e+15,1,1,1,0,1,1,2,0
1.59101214037201e+15,-1,-1,0,-3,-2,-2,-1,1
1.59101214037379e+15,-1,1,0,-1,1,1,-1,0
1.59101214037379e+15,-3,-1,0,-1,-2,-2,-3,-2
1.59101214038496e+15,0,1,-1,-1,0,0,3,1
1.59101214038496e+15,-1,-1,-1,-2,-1,-1,-2,0
1.59101214039374e+15,-2,-1,-2,-1,-1,-1,-1,-1
1.59101214039374e+15,-2,-1,1,-2,0,0,-3,-3
1.5910121404077e+15,1,-1,-1,-2,-1,-1,-3,-2
1.5910121404077e+15,-1,-1,-1,0,-2,-2,0,0
1.59101214042274e+15,0,-1,0,0,-2,-2,-2,-1
1.59101214042274e+15,0,-0,1,-2,-1,-1,1,-1
1.59101214043171e+15,-3,-2,-3,-2,-4,-4,-1,-2
1.59101214043171e+15,-2,-1,-1,-2,0,0,0,-3
1.59101214043263e+15,0,-0,-1,0,1,1,-2,-2
1.59101214043263e+15,1,-1,-2,-1,-1,-1,0,-1
1.5910121404446e+15,-1,-0,-1,-1,-1,-1,-1,0
1.5910121404446e+15,-2,-1,-1,-2,-1,-1,-2,-1
1.59101214045358e+15,-2,-0,-1,-1,-2,-2,0,-1
1.59101214045358e+15,-2,-0,-2,-1,-1,-1,0,0
1.59101214046861e+15,0,-1,0,-1,-1,-1,-3,-1
1.59101214046861e+15,1,-0,-1,-1,0,0,0,-1
1.59101214047053e+15,-1,-1,0,-2,-1,-1,0,-1
1.59101214047053e+15,-2,-0,-2,0,-2,-2,-1,-1
1.5910121404925e+15,-1,-1,1,-1,0,0,-1,-2
1.5910121404925e+15,-1,-1,-1,-1,-1,-1,-1,-1
1.59101214049347e+15,0,-1,-2,-2,-1,-1,-3,0
1.59101214049347e+15,-2,-1,0,-2,0,0,1,-1
1.59101214051342e+15,-1,-0,0,0,0,0,-1,0
1.59101214051342e+15,-1,-0,0,1,0,0,-2,-2
1.59101214051541e+15,-1,-1,-2,-3,-2,-2,0,-2
1.59101214051541e+15,0,-1,0,2,-3,-3,-2,-3
1.59101214052886e+15,0,-1,-2,-2,-2,-2,1,-3
1.59101214052886e+15,-5,-1,0,-4,-1,-1,-1,-1
1.59101214053086e+15,0,-1,-2,-2,-2,-2,-3,-1
1.59101214053086e+15,-2,-1,-3,-3,0,0,-1,-2
1.59101214055083e+15,0,-0,-2,1,-1,-1,0,0
1.59101214055083e+15,0,-1,-1,0,-2,-2,-2,-1
1.59101214055878e+15,-1,-0,-2,0,-1,-1,0,0
1.59101214055878e+15,-1,-1,0,-1,0,0,-1,-1
1.59101214056486e+15,-2,-0,0,0,-1,-1,-1,-1
1.59101214056486e+15,0,-1,-1,0,-4,-4,-3,-1
1.59101214057381e+15,-2,-0,-2,-2,0,0,-1,2
1.59101214057381e+15,0,-0,-1,-1,-1,-1,1,1
1.59101214058879e+15,-2,-1,-3,-2,-1,-1,0,-1
1.59101214058879e+15,-1,-0,-2,0,0,0,1,-2
1.5910121405907e+15,-2,-2,-2,-4,-1,-1,-2,-2
1.5910121405907e+15,1,-0,0,0,-1,-1,-1,-1
1.59101214061168e+15,-4,-2,-2,0,-1,-1,-5,-4
1.59101214061168e+15,-2,-2,-1,-4,-4,-4,-3,-1
1.59101214061264e+15,-1,-1,-1,-2,-2,-2,0,1
1.59101214061264e+15,1,-1,-3,-1,-2,-2,-1,-1
1.5910121406247e+15,1,1,1,0,-2,-2,2,1
1.5910121406247e+15,-2,-1,-2,-1,-1,-1,-2,-2
1.59101214063367e+15,-1,-0,-2,0,-1,-1,-1,-4
1.59101214063367e+15,-1,-1,0,-2,0,0,0,-2
1.59101214064863e+15,0,-1,-2,-2,-1,-1,-3,-3
1.59101214064863e+15,-2,-1,-2,-2,0,0,-2,1
1.59101214065555e+15,-3,-0,0,0,-2,-2,0,1
1.59101214065555e+15,1,-0,1,0,-1,-1,-1,0
1.59101214067148e+15,1,1,0,0,0,0,0,0
1.59101214067148e+15,1,-0,0,-2,-1,-1,1,-2
1.59101214067347e+15,0,-0,-1,-2,-1,-1,-2,-1
1.59101214067347e+15,-1,-1,-3,1,-3,-3,-1,-2
1.59101214070149e+15,-2,-0,-1,-2,1,1,0,0
1.59101214070149e+15,-1,-0,-3,2,1,1,-1,-1
1.59101214070353e+15,-3,-1,-1,-1,-1,-1,-2,-2
1.59101214070353e+15,0,-0,-1,-2,-1,-1,-1,-3
1.5910121407094e+15,0,-0,-2,0,-1,-1,1,0
1.5910121407094e+15,-1,-0,-1,-3,0,0,1,2
1.5910121407114e+15,-1,-1,1,-1,-1,-1,-4,-2
1.5910121407114e+15,-1,-1,-3,-2,-1,-1,-2,-2
1.59101214073144e+15,0,1,2,1,-2,-2,0,2
1.59101214073144e+15,-1,-0,0,0,-1,-1,0,0
1.59101214073331e+15,0,-1,-4,-2,-2,-2,-1,-1
1.59101214073331e+15,-1,-0,-2,-3,0,0,-1,-2
1.59101214075428e+15,-1,-0,0,-1,-1,-1,-1,-1
1.59101214075428e+15,1,-1,-1,-1,-4,-4,0,-1
1.59101214075525e+15,-1,-1,0,-1,-2,-2,0,0
1.59101214075525e+15,-2,-1,-1,0,-1,-1,-2,-3
1.59101214076948e+15,-1,-0,-2,-3,0,0,0,-3
1.59101214076948e+15,-4,-0,0,0,0,0,-5,0
1.59101214077021e+15,-1,-1,-3,-1,-1,-1,-2,-2
1.59101214077021e+15,-1,-1,0,-3,-1,-1,-3,-3
1.59101214079125e+15,0,-0,-1,0,-2,-2,-2,1
1.59101214079125e+15,0,-1,0,-2,0,0,-1,-2
1.59101214079315e+15,-1,-1,-3,-2,-2,-2,-1,-2
1.59101214079315e+15,-1,-0,-1,-2,0,0,1,1
1.5910121408141e+15,0,-0,-2,-1,-1,-1,0,-2
1.5910121408141e+15,-1,-2,-2,-4,-3,-3,-1,0
1.59101214082017e+15,1,-0,0,-1,-2,-2,0,0
1.59101214082017e+15,0,-0,1,-1,-2,-2,-1,0
1.59101214083606e+15,-3,-1,0,-2,1,1,-2,-2
1.59101214083606e+15,-2,-0,-2,-2,-1,-1,1,0
1.59101214083803e+15,-2,-1,-2,-2,-1,-1,-2,-1
1.59101214083803e+15,1,-0,0,0,-3,-3,1,2
1.591012140851e+15,0,-0,1,0,-1,-1,-4,-1
1.591012140851e+15,-1,-0,0,1,-1,-1,-1,0
1.591012140859e+15,-2,-1,-4,-1,-1,-1,-1,-1
1.591012140859e+15,0,-1,-3,0,0,0,-5,-3
1.59101214087401e+15,0,-0,-2,-1,-1,-1,0,0
1.59101214087401e+15,-1,-1,0,-2,-1,-1,0,-4
1.59101214087596e+15,-1,-0,0,0,-2,-2,1,-2
1.59101214087596e+15,-2,-0,-1,-1,0,0,-1,1
1.5910121408879e+15,-1,-1,0,-1,-2,-2,-1,1
1.5910121408879e+15,-2,-1,-1,-2,-1,-1,1,-3
1.59101214089691e+15,0,-1,-2,-2,0,0,-2,-2
1.59101214089691e+15,-1,-1,-2,-3,-2,-2,1,-2
1.59101214091184e+15,0,-0,-1,0,1,1,-1,-1
1.59101214091184e+15,-2,-1,0,-3,-1,-1,-3,-1
1.59101214091383e+15,-1,-1,0,0,-2,-2,-1,0
1.59101214091383e+15,0,-1,-2,0,-2,-2,0,0
1.5910121409338e+15,0,-0,0,1,-2,-2,-3,-2
1.5910121409338e+15,1,-0,-1,-1,-1,-1,-2,1
1.59101214093577e+15,-2,-1,0,-1,1,1,0,-2
1.59101214093577e+15,-2,-1,-1,-1,-2,-2,-3,0
1.59101214094888e+15,-1,-1,-2,-1,0,0,2,-2
1.59101214094888e+15,-1,-1,-2,0,-1,-1,-2,0
1.59101214095672e+15,-3,-1,-2,-2,-2,-2,-1,0
1.59101214095672e+15,0,2,1,0,2,2,4,2
1.59101214097182e+15,-3,-1,-2,-1,-3,-3,-3,-1
1.59101214097182e+15,0,-1,-1,0,-2,-2,-2,-1
1.59101214097274e+15,-2,-0,-2,0,1,1,-1,-3
1.59101214097274e+15,-1,-1,0,0,-2,-2,-3,-3
1.59101214099262e+15,-1,-1,-2,-1,-1,-1,0,0
1.59101214099262e+15,0,1,-1,-1,1,1,1,1
1.59101214101058e+15,-1,-1,-2,-3,-2,-2,-4,-1
1.59101214101058e+15,-3,-1,-1,-2,-1,-1,-1,-1
1.59101214101157e+15,-1,-0,-1,1,-1,-1,0,1
1.59101214101157e+15,-1,-1,-2,-1,-1,-1,-2,-2
1.59101214101457e+15,0,1,1,1,-1,-1,0,0
1.59101214101457e+15,-5,-2,0,-2,0,0,-2,-3
1.5910121410318e+15,-1,-1,-3,-4,-1,-1,-1,-1
1.5910121410318e+15,-1,-1,-3,-2,-1,-1,-2,-2
1.5910121410375e+15,-2,-0,1,-1,-1,-1,0,0
1.5910121410375e+15,-1,-1,-2,-3,-3,-3,1,-1
1.59101214105445e+15,2,-0,0,-2,-1,-1,1,0
1.59101214105445e+15,-2,-2,-2,-1,-2,-2,-5,-3
1.59101214105645e+15,0,-2,0,-2,-2,-2,-2,-3
1.59101214105645e+15,-3,-1,-1,-1,-2,-2,-2,-1
1.59101214106869e+15,-3,-1,0,-4,0,0,-2,-1
1.59101214106869e+15,-1,-0,0,-2,-1,-1,2,-1
1.5910121410757e+15,-2,-0,1,-1,0,0,-1,0
1.5910121410757e+15,0,-0,-1,-2,0,0,0,-2
1.59101214109171e+15,0,-1,-2,0,0,0,-2,-1
1.59101214109171e+15,0,-0,-1,0,0,0,-1,0
1.59101214109335e+15,-2,-1,-3,-3,-1,-1,-1,-3
1.59101214109335e+15,0,-0,1,-1,-3,-3,-1,0
1.59101214112156e+15,-1,-0,-1,0,0,0,-2,0
1.59101214112156e+15,-1,-0,0,2,-2,-2,2,1
1.59101214112327e+15,-1,-1,0,-2,-2,-2,-2,0
1.59101214112327e+15,-1,-0,0,0,0,0,-3,-1
1.59101214112826e+15,-2,-0,-1,-1,0,0,-3,-1
1.59101214112826e+15,-1,-0,1,1,-1,-1,-3,1
1.59101214113624e+15,-3,-0,-1,0,0,0,2,-2
1.59101214113624e+15,-1,-1,-1,-2,0,0,-2,-4
1.59101214115119e+15,-1,-0,1,-1,-2,-2,0,-2
1.59101214115119e+15,-1,-1,-1,0,-1,-1,-1,-1
1.59101214116519e+15,-1,-2,-2,-1,-1,-1,-4,-2
1.59101214116519e+15,-1,-1,-4,-1,-3,-3,-2,-2
1.59101214117325e+15,0,-1,-1,-1,-2,-2,0,0
1.59101214117325e+15,0,-1,-2,-2,-1,-1,-3,-1
1.59101214118012e+15,-1,-1,0,-3,-2,-2,2,-1
1.59101214118012e+15,-1,-0,0,1,0,0,-1,1
1.59101214119607e+15,0,-0,0,0,-1,-1,0,-1
1.59101214119607e+15,-3,-2,-2,-2,-1,-1,-2,0
1.59101214120406e+15,-2,-1,-1,-4,-3,-3,-1,0
1.59101214120406e+15,0,-0,-3,-1,-1,-1,1,-1
1.59101214121104e+15,0,-1,-1,0,-1,-1,1,-3
1.59101214121104e+15,-1,-0,-2,-2,1,1,-1,-1
1.59101214121303e+15,-3,-1,-2,-2,-2,-2,-1,0
1.59101214121303e+15,-1,-2,-1,-2,-1,-1,-4,-3
1.59101214123419e+15,-2,-1,-3,-3,-1,-1,0,2
1.59101214123419e+15,-1,-0,-1,-2,1,1,-1,-1
1.59101214123497e+15,-1,-1,-1,-3,-1,-1,-2,0
1.59101214123497e+15,-3,-0,-2,0,1,1,1,1
1.59101214124801e+15,-2,-1,-2,-1,-2,-2,-6,-2
1.59101214124801e+15,1,-0,-1,-2,-1,-1,0,-2
1.59101214125692e+15,-2,-1,-2,1,0,0,-1,-3
1.59101214125692e+15,-1,-1,-2,-1,-2,-2,0,0
1.59101214127197e+15,-1,-1,-1,-1,-2,-2,-1,-3
1.59101214127197e+15,0,-1,-3,-2,-1,-1,0,-1
1.59101214127287e+15,0,-1,-1,1,-1,-1,-1,-3
1.59101214127287e+15,0,-1,-3,-3,-1,-1,-1,-1
1.59101214129403e+15,-2,-1,0,2,-1,-1,-2,0
1.59101214129403e+15,-1,-1,0,-1,-2,-2,-1,-1
1.59101214129581e+15,-2,-1,-1,0,0,0,-1,-1
1.59101214129581e+15,0,-1,0,-3,-2,-2,0,-3
1.59101214130783e+15,-1,-1,-2,-2,-1,-1,-2,0
1.59101214130783e+15,-1,-1,-1,-1,-2,-2,-2,0
1.59101214131676e+15,-1,-1,0,-1,-2,-2,-2,-1
1.59101214131676e+15,0,-0,0,2,0,0,0,-1
1.59101214133185e+15,-2,-1,0,-3,0,0,-3,-2
1.59101214133185e+15,0,-0,-1,-2,-1,-1,2,1
1.59101214133371e+15,-2,-2,-2,-2,-1,-1,-3,-2
1.59101214133371e+15,-3,-2,1,0,-1,-1,-3,-2
1.5910121413538e+15,-2,-0,-2,-1,1,1,4,-2
1.5910121413538e+15,-1,-1,-3,0,-2,-2,-6,0
1.59101214135565e+15,-1,-0,0,1,-1,-1,-2,0
1.59101214135565e+15,-1,-0,-2,0,-2,-2,0,-2
1.59101214136768e+15,-1,-1,-1,-3,-2,-2,0,-1
1.59101214136768e+15,-6,-1,-1,-1,2,2,-1,-1
1.59101214137659e+15,1,-1,-1,-4,0,0,2,-1
1.59101214137659e+15,-1,-1,0,-3,-1,-1,-1,-1
1.59101214139161e+15,0,-0,0,-1,0,0,-1,0
1.59101214139161e+15,-2,-1,-2,-1,-1,-1,-1,-2
1.59101214139854e+15,0,-1,-2,0,-1,-1,-2,-1
1.59101214139854e+15,-2,-0,-1,-2,-1,-1,1,0
1.59101214141349e+15,0,-0,-2,0,-2,-2,0,-2
1.59101214141349e+15,-1,-0,-1,0,-1,-1,1,-1
1.59101214141549e+15,-1,-1,-3,0,-1,-1,-2,0
1.59101214141549e+15,-1,-0,-2,-1,-2,-2,2,-1
1.59101214142758e+15,-3,-1,-2,0,-1,-1,0,-2
1.59101214142758e+15,-1,-0,0,0,1,1,-1,0
1.59101214145149e+15,-1,-1,-1,-3,-2,-2,0,-3
1.59101214145149e+15,2,-0,0,0,0,0,-1,0
1.59101214145846e+15,-2,-0,0,1,-1,-1,-1,-1
1.59101214145846e+15,-1,-0,-1,-1,-1,-1,-2,-1
1.59101214146542e+15,-1,-1,0,-2,-1,-1,0,0
1.59101214146542e+15,0,-0,0,0,-2,-2,0,1
1.59101214147439e+15,-2,-0,-1,0,-1,-1,0,-2
1.59101214147439e+15,0,-0,-2,-1,-1,-1,-1,-1
1.59101214148036e+15,-1,-0,0,-1,-1,-1,-1,-2
1.59101214148036e+15,-1,-1,-3,-2,-2,-2,-2,-2
1.59101214148761e+15,1,-0,-1,-4,1,1,-2,1
1.59101214148761e+15,-1,-1,-2,-2,-2,-2,0,-1
1.5910121415024e+15,-2,-1,-2,1,1,1,-2,-3
1.5910121415024e+15,-4,-0,0,1,1,1,0,-1
1.59101214151124e+15,0,-1,-1,-1,-2,-2,0,-1
1.59101214151124e+15,0,-1,0,-2,-2,-2,0,-2
1.59101214151323e+15,-1,-1,-3,-1,0,0,-1,1
1.59101214151323e+15,0,-2,-2,-3,-2,-2,-2,-1
1.59101214153317e+15,-2,-1,-2,-2,-2,-2,-2,0
1.59101214153317e+15,-1,-0,0,-4,-2,-2,-1,-2
1.59101214155721e+15,0,-1,0,-2,-1,-1,-5,-2
1.59101214155721e+15,0,-0,-1,0,1,1,-3,-2
1.59101214155811e+15,-1,-0,0,-1,-2,-2,-4,0
1.59101214155811e+15,-4,-2,-1,-2,-2,-2,0,-1
1.5910121415591e+15,-1,-1,-1,-1,0,0,1,-2
1.5910121415591e+15,-2,-0,0,-2,0,0,0,0
1.59101214157113e+15,0,-1,0,-3,0,0,-1,-2
1.59101214157113e+15,-1,-1,-1,-1,-1,-1,-1,-3
1.59101214157307e+15,0,-0,-3,1,-1,-1,-1,0
1.59101214157307e+15,0,-0,-3,0,0,0,-1,-1
1.59101214159401e+15,-3,-1,-1,-1,-1,-1,0,0
1.59101214159401e+15,-2,-1,-2,-2,-2,-2,-2,1
1.59101214159501e+15,-1,-0,-2,0,0,0,-1,-1
1.59101214159501e+15,1,-1,0,-1,-2,-2,-3,-2
1.591012141608e+15,-2,-1,-1,-3,-1,-1,-1,-1
1.591012141608e+15,-1,-1,-1,-2,-2,-2,-2,-1
1.59101214162299e+15,2,1,-1,-3,-1,-1,3,2
1.59101214162299e+15,-2,-0,1,0,-1,-1,-2,-1
1.59101214163098e+15,-2,-1,-3,1,-1,-1,-2,-3
1.59101214163098e+15,-2,-1,-2,-1,-1,-1,0,0
1.59101214163291e+15,-2,-1,-1,-1,-2,-2,0,-2
1.59101214163291e+15,-1,-1,-3,-2,-3,-3,-1,-3
1.59101214165391e+15,0,-0,0,-2,-1,-1,-1,0
1.59101214165391e+15,0,-1,-1,-1,0,0,-3,-3
1.59101214165585e+15,-1,-0,-1,-1,-2,-2,1,0
1.59101214165585e+15,-1,-1,-2,-1,1,1,0,-1
1.59101214167679e+15,-2,-2,-3,-1,-1,-1,-5,-3
1.59101214167679e+15,-2,-0,-1,-1,-1,-1,0,0
1.59101214167779e+15,0,-0,1,-2,0,0,-1,0
1.59101214167779e+15,0,-0,0,-3,0,0,0,1
1.59101214169209e+15,-1,-1,-2,-1,-1,-1,1,1
1.59101214169209e+15,-1,-1,-4,-2,-1,-1,-2,-2
1.59101214169389e+15,0,-0,-1,0,-1,-1,-2,-1
1.59101214169389e+15,-2,-1,-2,-3,-1,-1,0,-3
1.5910121417138e+15,0,1,0,0,-1,-1,0,-2
1.5910121417138e+15,-1,-1,-1,-2,0,0,-2,-3
1.59101214172167e+15,-1,-1,-2,-3,-1,-1,1,-1
1.59101214172167e+15,1,1,-1,1,0,0,0,0
1.59101214173676e+15,-3,-1,-2,-1,-2,-2,-1,0
1.59101214173676e+15,-1,-1,-2,-2,-2,-2,-3,0
1.591012141738e+15,-2,-0,-1,-1,0,0,-3,-3
1.591012141738e+15,-1,-0,0,0,-1,-1,-2,0
1.59101214175159e+15,-1,-0,0,0,-2,-2,-1,0
1.59101214175159e+15,-2,-2,-3,-2,-2,-2,-1,-1
1.59101214175791e+15,0,-1,-3,-3,-3,-3,1,0
1.59101214175791e+15,0,-0,-1,-1,0,0,-1,-2
1.59101214178179e+15,-1,-0,-2,-1,0,0,-1,-1
1.59101214178179e+15,-2,-2,-2,-1,-2,-2,-2,-2
1.59101214178251e+15,0,-1,-1,-1,-1,-1,-1,-1
1.59101214178251e+15,-1,-2,-1,0,-2,-2,-3,-2
1.59101214179647e+15,-2,-1,-2,-1,-1,-1,-4,-1
1.59101214179647e+15,-4,-1,0,-4,0,0,-1,-1
1.59101214179846e+15,-3,-1,1,-1,1,1,-2,-1
1.59101214179846e+15,-1,-1,-2,-4,0,0,1,-1
1.59101214181244e+15,-1,-1,-1,-2,0,0,-2,-2
1.59101214181244e+15,0,-0,-2,0,-1,-1,0,-2
1.59101214181343e+15,-2,-2,-2,-2,-2,-2,-4,-3
1.59101214181343e+15,-1,1,0,2,-1,-1,-1,1
1.59101214183347e+15,1,-0,1,-1,-3,-3,-3,-1
1.59101214183347e+15,-2,-0,0,0,1,1,1,1
1.59101214184235e+15,0,-1,0,-1,-2,-2,-1,-2
1.59101214184235e+15,0,-0,1,0,-1,-1,-1,0
1.59101214185631e+15,-1,-0,0,-1,1,1,-1,-2
1.59101214185631e+15,-2,-1,-1,-3,0,0,-1,1
1.59101214186229e+15,-1,-0,1,-2,2,2,-1,-1
1.59101214186229e+15,-1,-0,0,0,-1,-1,0,0
1.59101214187127e+15,1,-0,-3,-2,0,0,0,0
1.59101214187127e+15,-3,-0,1,0,-1,-1,1,-1
1.59101214187733e+15,1,-0,0,2,0,0,-3,-1
1.59101214187733e+15,-1,-1,-2,-2,0,0,-1,-1
1.59101214189424e+15,-2,-0,0,-3,0,0,1,-1
1.59101214189424e+15,0,-1,-1,-2,-3,-3,-3,-3
1.59101214189521e+15,-3,-1,-2,-1,-2,-2,0,-4
1.59101214189521e+15,-1,-0,-1,1,1,1,0,0
1.59101214192415e+15,-1,-0,-1,0,-1,-1,-2,-1
1.59101214192415e+15,0,-0,-2,0,-1,-1,-2,1
1.59101214193295e+15,-2,-2,-2,-2,-4,-4,-3,-1
1.59101214193295e+15,-3,-1,-1,-1,-2,-2,-1,0
1.59101214193391e+15,-2,-1,-1,-2,0,0,-2,-1
1.59101214193391e+15,0,-0,0,0,0,0,1,-1
1.59101214194688e+15,-2,-1,-1,-1,-2,-2,-2,-2
1.59101214194688e+15,-1,-2,-2,-2,-1,-1,-1,0
1.59101214195316e+15,-1,-1,-2,0,-1,-1,-2,-1
1.59101214195316e+15,-3,-2,-2,-2,-2,-2,-4,-2
1.59101214196184e+15,0,-0,-1,0,-1,-1,0,-1
1.59101214196184e+15,-1,-0,-1,-2,0,0,-1,0
1.59101214198509e+15,-2,-0,-1,-1,-2,-2,-1,1
1.59101214198509e+15,-1,-2,-3,-1,-1,-1,-1,-4
1.59101214198577e+15,-2,-1,-2,-3,0,0,2,-1
1.59101214198577e+15,0,-0,0,2,-2,-2,-3,-3
1.5910121419909e+15,-1,-1,-1,-1,0,0,-1,-2
1.5910121419909e+15,0,-0,0,0,-2,-2,-2,-2
1.59101214200672e+15,-2,-0,0,-1,0,0,-1,-1
1.59101214200672e+15,-1,-1,0,0,0,0,-2,-2
1.5910121420137e+15,-1,-1,-1,-2,-1,-1,1,2
1.5910121420137e+15,1,-1,-1,-2,-2,-2,-3,-1
1.5910121420157e+15,-3,-1,-2,-1,0,0,-1,-1
1.5910121420157e+15,-1,-0,-1,-2,-1,-1,0,0
1.59101214204368e+15,-1,-1,-3,-3,-2,-2,0,-1
1.59101214204368e+15,1,-1,-1,-1,-3,-3,-2,-1
1.59101214205962e+15,-1,-1,0,-2,-1,-1,-1,-1
1.59101214205962e+15,1,1,-1,-1,-1,-1,0,2
1.59101214206058e+15,-2,-0,0,1,0,0,-2,0
1.59101214206058e+15,-2,-0,2,0,0,0,1,-1
1.59101214206556e+15,-3,-1,-1,-2,-2,-2,-1,-4
1.59101214206556e+15,0,-1,0,-1,-1,-1,-1,-6
1.59101214208052e+15,-1,-0,-1,-1,-1,-1,0,1
1.59101214208052e+15,-2,-0,-1,0,0,0,-2,1
1.5910121420895e+15,-1,-1,-1,-1,-2,-2,-4,-1
1.5910121420895e+15,0,-0,-2,-3,0,0,1,2
1.59101214209648e+15,1,-0,-1,0,1,1,0,0
1.59101214209648e+15,-1,-1,-2,-2,-3,-3,-2,0
1.59101214209848e+15,0,-0,-1,-2,0,0,-2,-2
1.59101214209848e+15,-1,-0,-1,-1,-2,-2,1,-1
1.5910121421261e+15,0,-1,1,0,-4,-4,-4,-4
1.5910121421261e+15,-3,-1,0,-1,0,0,2,-1
1.59101214212806e+15,-3,-1,-2,-1,0,0,0,-2
1.59101214212806e+15,-2,-1,0,0,0,0,-3,-1
1.59101214213503e+15,-2,-1,1,-2,0,0,-4,-2
1.59101214213503e+15,0,-0,-2,0,0,0,-2,0
1.59101214213603e+15,0,-0,-2,-2,-2,-2,0,0
1.59101214213603e+15,-3,-2,-1,0,-2,-2,-6,-3
