TimeStamp,emg1,emg2,emg3,emg4,emg5,emg6,emg7,emg8
1.59101182452419e+15,0,1,2,0,0,0,1,-1
1.59101182452419e+15,0,-1,-5,0,-2,-2,-2,-1
1.59101182452518e+15,3,-0,-2,-2,0,0,2,-1
1.59101182452518e+15,-3,-1,-7,-2,0,0,1,3
1.5910118245292e+15,1,-1,-3,-1,-2,-2,-3,1
1.5910118245292e+15,2,1,-3,2,1,1,1,0
1.59101182453815e+15,-7,-0,6,2,-1,-1,-3,1
1.59101182453815e+15,-4,-4,-13,-4,-3,-3,-1,-7
1.59101182453923e+15,-2,-2,-5,-3,-1,-1,-2,-5
1.59101182453923e+15,-2,-0,6,-2,-3,-3,-2,1
1.59101182454721e+15,3,-3,-20,-6,-2,-2,0,0
1.59101182454721e+15,1,3,21,6,-2,-2,-3,-5
1.59101182455912e+15,-1,1,-2,-2,-1,-1,-2,9
1.59101182455912e+15,-3,-1,-2,-2,-1,-1,0,-2
1.59101182456707e+15,-3,-1,-3,-2,2,2,-1,-5
1.59101182456707e+15,2,1,-8,-3,1,1,0,11
1.59101182457407e+15,-18,-7,-12,-1,1,1,-2,-20
1.59101182457407e+15,4,3,13,2,-1,-1,-2,6
1.59101182459803e+15,-12,-2,4,1,-3,-3,-4,-7
1.59101182459803e+15,-4,-0,3,1,-2,-2,-3,1
1.59101182459803e+15,-1,-0,0,2,-3,-3,0,0
1.59101182459803e+15,3,-1,-10,-4,0,0,1,1
1.59101182464287e+15,0,-1,-8,0,-1,-1,0,-1
1.59101182464287e+15,-3,-1,7,0,-3,-3,-3,-1
1.59101182464396e+15,0,-0,0,0,0,0,-2,-3
1.59101182464396e+15,0,-0,-3,0,-2,-2,1,2
1.59101182464496e+15,-6,-0,1,-1,1,1,-1,-1
1.59101182464496e+15,-1,-2,-5,-3,0,0,2,-3
1.59101182464885e+15,-1,-1,3,-2,-3,-3,-2,-3
1.59101182464885e+15,-4,-2,-10,-3,0,0,-1,-4
1.59101182465484e+15,1,-0,-1,-4,-1,-1,-1,4
1.59101182465484e+15,4,-0,-2,0,-2,-2,-2,0
1.59101182466381e+15,0,-0,-2,1,1,1,2,-6
1.59101182466381e+15,0,-1,2,-1,-3,-3,-4,-2
1.59101182467777e+15,1,-0,-2,0,1,1,-2,-6
1.59101182467777e+15,2,-3,-18,-4,-1,-1,-1,1
1.59101182468676e+15,-2,2,11,0,1,1,1,7
1.59101182468676e+15,2,-0,1,1,-4,-4,-2,-6
1.59101182469275e+15,-3,-0,-2,1,0,0,1,0
1.59101182469275e+15,0,-0,2,-1,0,0,0,0
1.59101182471567e+15,-1,-2,-14,-4,-2,-2,1,1
1.59101182471567e+15,-4,3,20,2,1,1,0,-2
1.59101182471667e+15,-4,-3,-7,-3,-3,-3,-2,1
1.59101182471667e+15,-2,-2,-12,-4,0,0,2,0
1.59101182472964e+15,1,-0,3,0,-1,-1,0,-3
1.59101182472964e+15,-6,-2,2,-1,-3,-3,-3,-4
1.59101182473761e+15,4,-1,-2,-1,-3,-3,-3,-3
1.59101182473761e+15,-9,-3,1,-1,0,0,-1,-12
1.5910118247536e+15,1,1,-2,-3,-1,-1,-2,8
1.5910118247536e+15,5,-1,-8,-3,-3,-3,-2,1
1.5910118247536e+15,-3,1,7,2,0,0,-1,-2
1.5910118247536e+15,-2,-1,1,-1,-2,-2,-2,1
1.59101182478452e+15,-2,-3,-8,-2,1,1,-2,-8
1.59101182478452e+15,-3,1,-3,0,1,1,2,5
1.59101182478549e+15,2,2,6,-2,-1,-1,-1,7
1.59101182478549e+15,2,3,15,2,-1,-1,-2,1
1.59101182479147e+15,-7,-3,-4,0,-3,-3,-2,-9
1.59101182479147e+15,1,-1,-5,-3,1,1,-2,-2
1.59101182479746e+15,9,-0,-12,-1,-3,-3,0,6
1.59101182479746e+15,-3,-3,-6,-2,-1,-1,-5,-2
1.59101182481343e+15,1,-0,-4,0,-2,-2,-1,-3
1.59101182481343e+15,-1,-2,-13,-1,1,1,0,-8
1.59101182481441e+15,-3,3,21,-1,-1,-1,-1,2
1.59101182481441e+15,-1,1,7,3,0,0,-1,0
1.59101182483535e+15,1,-0,-8,-1,-1,-1,1,2
1.59101182483535e+15,0,-0,0,-1,-1,-1,0,-3
1.59101182483635e+15,-6,-4,-13,-3,2,2,-1,-7
1.59101182483635e+15,-3,-0,2,1,1,1,1,-1
1.59101182485042e+15,13,3,4,0,1,1,0,6
1.59101182485042e+15,6,-0,-2,-3,-1,-1,0,2
1.59101182485739e+15,4,-0,-2,0,-2,-2,-1,-2
1.59101182485739e+15,-11,-4,-6,-4,-2,-2,-1,-7
1.59101182487326e+15,-2,1,7,1,-2,-2,0,5
1.59101182487326e+15,-3,-2,-4,-2,-2,-2,-2,0
1.59101182488033e+15,-2,-1,-3,0,0,0,1,-5
1.59101182488033e+15,3,1,5,3,-4,-4,0,3
1.59101182489629e+15,-1,-1,-2,-1,3,3,-3,-5
1.59101182489629e+15,-2,-0,-2,-3,-2,-2,3,8
1.59101182489719e+15,-5,-2,-3,3,1,1,-1,-8
1.59101182489719e+15,-2,-0,3,-6,1,1,1,0
1.59101182491025e+15,-9,-5,-6,-6,-2,-2,-3,-8
1.59101182491025e+15,2,2,13,3,-1,-1,-4,-1
1.59101182491713e+15,0,-0,-1,-1,-1,-1,0,-1
1.59101182491713e+15,-2,-1,-5,-1,-1,-1,1,0
1.59101182493509e+15,-9,-5,-19,-5,-3,-3,-3,-2
1.59101182493509e+15,-2,3,21,2,2,2,-1,-1
1.59101182493509e+15,-15,-2,5,0,-1,-1,-2,-7
1.59101182493509e+15,4,1,1,1,-2,-2,0,3
1.59101182496405e+15,0,-0,-1,-1,-2,-2,0,0
1.59101182496405e+15,-4,-4,-12,-1,-2,-2,-2,-9
1.59101182496501e+15,2,1,-3,-4,-2,-2,-1,13
1.59101182496501e+15,1,-0,-2,-1,1,1,-1,-3
1.59101182497801e+15,6,2,7,2,0,0,1,-1
1.59101182497801e+15,-2,-6,-12,-7,-7,-7,-8,-4
1.59101182497901e+15,1,-0,4,-1,-2,-2,-2,-3
1.59101182497901e+15,1,-3,-14,-3,-2,-2,-1,0
1.59101182499296e+15,1,2,10,1,-1,-1,-2,0
1.59101182499296e+15,-4,1,-2,3,0,0,2,3
1.59101182499393e+15,-5,-1,-1,1,-1,-1,-1,-3
1.59101182499393e+15,2,-0,-4,-1,-1,-1,-1,0
1.59101182501587e+15,-3,-1,1,-1,-3,-3,1,-2
1.59101182501587e+15,0,1,3,2,2,2,-5,2
1.59101182501687e+15,5,-0,-6,-4,0,0,2,-1
1.59101182501687e+15,6,-1,-6,0,-2,-2,-3,-9
1.59101182502994e+15,0,-1,-8,-3,-2,-2,-2,2
1.59101182502994e+15,-8,-1,3,2,-1,-1,2,-4
1.5910118250379e+15,3,5,25,1,-1,-1,-3,12
1.5910118250379e+15,-2,-0,4,-2,-1,-1,-1,-2
1.59101182505277e+15,-2,-1,-1,-1,-1,-1,0,-3
1.59101182505277e+15,2,-4,-18,-5,-2,-2,-2,0
1.59101182505377e+15,-1,-2,-3,-3,-2,-2,-4,-7
1.59101182505377e+15,-1,1,1,1,1,1,1,2
1.59101182507571e+15,3,1,5,0,-1,-1,-3,3
1.59101182507571e+15,-9,-3,-9,-3,-2,-2,3,3
1.59101182507671e+15,2,1,-6,1,1,1,1,-2
1.59101182507671e+15,-7,-2,-2,0,-1,-1,-3,-4
1.59101182508967e+15,-2,-2,-4,0,0,0,-3,-3
1.59101182508967e+15,7,1,4,0,-1,-1,-1,-6
1.59101182509771e+15,-18,-5,-3,-5,-4,-4,-1,-5
1.59101182509771e+15,3,1,-5,-3,-2,-2,2,6
1.59101182511365e+15,-1,1,6,2,-2,-2,0,0
1.59101182511365e+15,-1,1,1,-1,2,2,-1,-1
1.59101182511365e+15,-1,-2,-7,-1,-1,-1,-3,0
1.59101182511365e+15,0,-1,5,-2,-1,-1,-3,-3
1.59101182513555e+15,-1,-0,-1,-2,-1,-1,-1,4
1.59101182513555e+15,-2,-0,2,-1,-1,-1,-2,-1
1.59101182513656e+15,6,1,-12,0,0,0,3,3
1.59101182513656e+15,-2,2,16,0,-1,-1,-4,2
1.59101182515056e+15,-3,-4,-7,-3,1,1,-3,-17
1.59101182515056e+15,4,2,8,4,-2,-2,-3,6
1.5910118251575e+15,-9,-4,-1,0,-2,-2,-3,-16
1.5910118251575e+15,1,1,-1,2,-1,-1,1,0
1.59101182517356e+15,-4,-1,-2,-3,2,2,2,0
1.59101182517356e+15,5,-1,-6,-3,-1,-1,-2,-2
1.59101182517445e+15,-3,-3,-5,-3,-1,-1,-2,-8
1.59101182517445e+15,-1,-0,1,0,0,0,-1,2
1.59101182519551e+15,1,-0,-1,-1,-1,-1,-2,4
1.59101182519551e+15,-2,-0,-3,0,2,2,0,-1
1.59101182519639e+15,1,-2,-4,-3,-3,-3,-3,-2
1.59101182519639e+15,-6,-3,-3,-3,-1,-1,-1,-5
1.59101182521045e+15,-2,1,4,2,-1,-1,0,3
1.59101182521045e+15,0,1,3,0,0,0,2,2
1.59101182521744e+15,3,1,-2,-2,0,0,-1,5
1.59101182521744e+15,0,-2,-6,-2,-2,-2,-2,-3
1.59101182523333e+15,-3,-0,-2,1,-1,-1,0,2
1.59101182523333e+15,0,-0,5,-2,0,0,-1,-1
1.59101182524027e+15,-5,-0,2,-1,1,1,0,-5
1.59101182524027e+15,1,-0,-6,-2,-1,-1,2,6
1.59101182525623e+15,-4,-3,-3,-2,-1,-1,-1,-6
1.59101182525623e+15,4,-1,-3,0,-2,-2,0,-4
1.59101182525623e+15,-6,-3,-2,-2,-4,-4,-3,-1
1.59101182525623e+15,0,1,11,2,0,0,0,-11
1.59101182527022e+15,1,-3,-6,-3,-5,-5,-8,-2
1.59101182527022e+15,0,-0,-1,-1,0,0,-2,3
1.59101182527721e+15,-2,-1,-1,0,0,0,-3,0
1.59101182527721e+15,-7,-3,-4,-1,-3,-3,-1,-5
1.59101182529313e+15,-14,-4,-3,-2,0,0,-4,-10
1.59101182529313e+15,-3,1,-1,-4,-1,-1,1,14
1.59101182529413e+15,0,-0,0,-1,-2,-2,-2,1
1.59101182529413e+15,-1,-2,-11,-2,-1,-1,-2,-3
1.5910118253161e+15,2,3,12,0,-1,-1,1,5
1.5910118253161e+15,-5,-3,-2,-3,-1,-1,-3,-13
1.5910118253161e+15,2,2,1,0,1,1,3,4
1.5910118253161e+15,4,-0,-2,-2,-1,-1,-3,5
1.59101182533007e+15,3,-0,-10,-3,1,1,0,3
1.59101182533007e+15,-10,-4,-6,2,-4,-4,-2,-10
1.59101182533801e+15,2,1,8,-1,-3,-3,0,0
1.59101182533801e+15,0,-0,5,-1,-1,-1,0,-5
1.59101182535297e+15,2,-0,-1,2,-1,-1,-2,-2
1.59101182535297e+15,-3,-3,-7,-7,-1,-1,0,-4
1.59101182535397e+15,-3,-1,-3,1,0,0,-3,-2
1.59101182535397e+15,2,2,-3,-1,0,0,0,14
1.59101182537594e+15,-1,-1,0,-4,-3,-3,2,-5
1.59101182537594e+15,-9,-4,-6,-3,-4,-4,-1,-3
1.59101182537692e+15,7,1,4,2,-1,-1,1,-4
1.59101182537692e+15,0,-0,-1,-3,0,0,1,-3
1.5910118253899e+15,0,-0,-1,1,0,0,0,-1
1.5910118253899e+15,0,-2,-2,-2,0,0,-4,-6
1.59101182539788e+15,0,-1,-6,-3,0,0,0,1
1.59101182539788e+15,-2,-1,-3,-1,-1,-1,-2,-2
1.59101182541291e+15,2,-2,-10,-4,0,0,1,2
1.59101182541291e+15,-2,2,17,4,-3,-3,-2,-4
1.59101182541388e+15,2,-0,-4,-1,-1,-1,0,0
1.59101182541388e+15,-4,-2,-3,-3,-1,-1,0,-3
1.59101182543582e+15,0,-2,-4,-3,-1,-1,-4,-3
1.59101182543582e+15,4,-0,-4,0,1,1,1,-5
1.59101182543682e+15,-4,2,-3,-1,-1,-1,-1,14
1.59101182543682e+15,0,-0,0,1,-1,-1,-1,0
1.59101182545876e+15,-6,-0,7,-1,-4,-4,-1,-4
1.59101182545876e+15,3,-1,-10,-4,0,0,-2,5
1.59101182545876e+15,3,-0,-3,1,-1,-1,-1,-3
1.59101182545876e+15,-3,-1,3,1,0,0,-2,-10
1.59101182547276e+15,-7,1,-2,1,0,0,-1,2
1.59101182547276e+15,3,1,5,0,-1,-1,1,-1
1.59101182547372e+15,-4,-3,-9,-5,-1,-1,-2,-6
1.59101182547372e+15,-3,-2,-3,1,-2,-2,-3,-3
1.59101182549566e+15,1,1,8,3,-1,-1,-2,-4
1.59101182549566e+15,-2,-0,-1,-2,-1,-1,-2,0
1.59101182549666e+15,4,1,-1,-4,1,1,1,0
1.59101182549666e+15,0,-0,-3,-3,-1,-1,-3,9
1.59101182551861e+15,1,-0,-3,-2,-1,-1,0,-1
1.59101182551861e+15,-1,-0,-4,-2,-2,-2,1,3
1.59101182551861e+15,2,1,5,0,-1,-1,0,2
1.59101182551861e+15,-5,-2,0,-4,-1,-1,-3,-4
1.59101182553356e+15,1,-1,-8,1,-1,-1,-1,-2
1.59101182553356e+15,-3,-0,-1,-2,-1,-1,-1,1
1.59101182554054e+15,-1,-1,-5,-2,-1,-1,1,-1
1.59101182554054e+15,3,-0,5,-1,-3,-3,1,0
1.59101182555555e+15,0,-1,-2,-3,-1,-1,-4,0
1.59101182555555e+15,2,-0,1,-3,1,1,0,-2
1.5910118255565e+15,-2,-3,-2,-3,-1,-1,-1,-10
1.5910118255565e+15,3,-0,-6,-2,-1,-1,0,5
1.59101182557847e+15,4,2,7,0,1,1,0,-5
1.59101182557847e+15,0,-1,-3,-2,-1,-1,-4,-5
1.59101182557944e+15,-11,-5,-3,-2,-2,-2,-2,-18
1.59101182557944e+15,4,-0,0,-1,-2,-2,-4,5
1.59101182559297e+15,-2,-0,-1,-1,-1,-1,2,-1
1.59101182559297e+15,4,1,-2,-1,-2,-2,-1,5
1.59101182559994e+15,-2,-1,-3,-2,-1,-1,-3,-2
1.59101182559994e+15,-5,1,4,6,2,2,-1,-7
1.5910118256149e+15,3,-2,-4,-2,-3,-3,-5,-2
1.5910118256149e+15,-2,-2,-3,-3,-3,-3,-2,-3
1.59101182562289e+15,2,1,2,-2,-2,-2,0,6
1.59101182562289e+15,1,-1,-8,-1,-3,-3,2,3
1.59101182563795e+15,3,-0,-1,-6,-1,-1,1,2
1.59101182563795e+15,-2,3,8,7,1,1,0,0
1.59101182563884e+15,1,-0,-6,-2,-1,-1,0,1
1.59101182563884e+15,0,-0,3,-1,1,1,-1,-6
1.59101182566078e+15,-6,1,3,2,-2,-2,-1,9
1.59101182566078e+15,-6,-1,-7,-3,-1,-1,0,4
1.59101182566177e+15,1,-0,1,0,-3,-3,-2,-2
1.59101182566177e+15,-7,-3,-6,-2,0,0,-2,-12
1.59101182567485e+15,-1,2,-2,-1,1,1,7,0
1.59101182567485e+15,2,-0,-1,-2,-2,-2,-4,8
1.59101182568375e+15,-3,-0,1,1,-1,-1,-2,3
1.59101182568375e+15,-7,-2,-2,-2,0,0,-1,-5
1.59101182569871e+15,6,1,-1,-1,-2,-2,0,2
1.59101182569871e+15,-1,-0,-4,-1,-2,-2,1,-1
1.59101182569871e+15,-1,-1,-4,-1,1,1,0,-4
1.59101182569871e+15,-1,1,3,1,-1,-1,-1,0
1.59101182572066e+15,-7,-2,-1,-1,0,0,-4,-3
1.59101182572066e+15,-5,-3,-2,-1,0,0,-4,-10
1.59101182572162e+15,2,-0,0,-2,0,0,-2,0
1.59101182572162e+15,-3,-1,3,1,-1,-1,0,-9
1.59101182573458e+15,-4,-2,-9,-2,-3,-3,-3,2
1.59101182573458e+15,3,-0,-4,-4,0,0,0,-1
1.59101182574356e+15,0,1,0,0,0,0,1,0
1.59101182574356e+15,-8,-1,0,-2,-4,-4,-3,5
1.5910118257665e+15,-11,-5,-5,-3,-3,-3,-2,-15
1.5910118257665e+15,4,1,4,-1,-2,-2,-2,-2
1.5910118257675e+15,3,1,2,1,-2,-2,-2,-3
1.5910118257675e+15,1,-2,-8,-3,-2,-2,-2,1
1.5910118257805e+15,2,-1,-6,-3,-1,-1,-2,0
1.5910118257805e+15,-7,-2,0,-3,-1,-1,2,-7
1.59101182578146e+15,-1,-0,5,2,-2,-2,-3,-5
1.59101182578146e+15,1,-1,-4,-3,0,0,-1,3
1.5910118257954e+15,2,2,3,-3,0,0,-1,7
1.5910118257954e+15,1,1,-4,0,2,2,1,-3
1.59101182580338e+15,1,1,-5,-4,0,0,1,10
1.59101182580338e+15,0,3,10,2,0,0,1,1
1.59101182581834e+15,3,-1,-4,-3,-2,-2,0,1
1.59101182581834e+15,-1,1,-1,0,-1,-1,2,5
1.59101182581933e+15,-5,-1,1,2,0,0,-2,-7
1.59101182581933e+15,5,-0,0,-1,-1,-1,0,1
1.59101182584127e+15,-4,-1,1,1,0,0,-4,-7
1.59101182584127e+15,0,-0,-2,-1,0,0,-3,-1
1.59101182584127e+15,-8,-2,-4,-4,-1,-1,-1,3
1.59101182584127e+15,-1,-5,-15,-7,-2,-2,-2,-9
1.59101182586421e+15,0,3,18,4,1,1,0,-7
1.59101182586421e+15,-6,-1,1,-1,-1,-1,-1,0
1.59101182586523e+15,9,3,-5,-3,-2,-2,2,16
1.59101182586523e+15,0,-0,-4,-2,0,0,-2,5
1.5910118258782e+15,0,-3,-7,-3,-3,-3,-3,-1
1.5910118258782e+15,-2,-1,0,-2,-2,-2,-2,-4
1.59101182587918e+15,-2,-2,-9,-1,-1,-1,2,-11
1.59101182587918e+15,2,1,0,2,-2,-2,-3,6
1.59101182590116e+15,-4,2,8,4,1,1,0,1
1.59101182590116e+15,7,1,-2,-2,-1,-1,0,2
1.59101182590116e+15,-22,-4,1,0,-3,-3,-1,-7
1.59101182590116e+15,-2,-2,-3,-1,0,0,-1,-7
1.59101182592408e+15,-2,-2,-8,-2,-1,-1,-1,-3
1.59101182592408e+15,4,2,4,0,-1,-1,-2,4
1.59101182592505e+15,-1,-3,-3,-5,-5,-5,-3,-7
1.59101182592505e+15,-2,2,0,1,3,3,1,7
1.59101182593805e+15,-9,-3,1,-2,-2,-2,-3,-8
1.59101182593805e+15,-2,-2,-5,-2,-3,-3,-1,-4
1.59101182593901e+15,5,2,1,0,2,2,-2,2
1.59101182593901e+15,-6,-1,1,-2,0,0,1,-6
1.59101182596096e+15,2,-0,-2,-2,-1,-1,0,2
1.59101182596096e+15,0,1,-2,-1,0,0,0,3
1.59101182596196e+15,0,-2,-5,0,0,0,-3,-5
1.59101182596196e+15,-4,1,10,2,-1,-1,0,-4
1.59101182599192e+15,2,-0,-2,-1,0,0,2,-2
1.59101182599192e+15,-1,-0,-1,0,-2,-2,-2,5
1.59101182599192e+15,2,-0,3,0,1,1,-2,-3
1.59101182599192e+15,-3,-3,-6,-3,-3,-3,-3,0
1.59101182599798e+15,0,-0,-5,-3,-1,-1,1,8
1.59101182599798e+15,2,-0,-1,-2,-1,-1,1,-1
1.59101182599886e+15,-1,-0,-1,0,0,0,-1,0
1.59101182599886e+15,-2,-1,1,1,-2,-2,-1,-4
1.59101182602878e+15,3,-1,-3,-2,0,0,-3,-3
1.59101182602878e+15,-3,-1,-5,0,-1,-1,-1,-5
1.59101182602978e+15,0,2,9,0,0,0,0,4
1.59101182602978e+15,7,-2,-7,-4,-4,-4,-2,-3
1.59101182604281e+15,-4,-4,2,-2,-2,-2,-2,-15
1.59101182604281e+15,1,-0,-5,-3,-1,-1,0,3
1.5910118260508e+15,3,-1,-4,-1,-1,-1,-1,-3
1.5910118260508e+15,0,1,2,3,1,1,0,0
1.59101182605871e+15,2,1,1,-2,-2,-2,0,3
1.59101182605871e+15,-1,-5,-14,-4,-1,-1,-1,-16
1.59101182605871e+15,2,3,13,2,-2,-2,-2,3
1.59101182605871e+15,-3,-1,-1,-3,1,1,0,0
1.59101182608169e+15,-3,-2,-9,-1,0,0,-4,2
1.59101182608169e+15,-7,-2,4,-1,-2,-2,-3,-7
1.59101182608263e+15,2,-1,-6,-1,-1,-1,0,-1
1.59101182608263e+15,10,2,3,-1,0,0,0,3
1.59101182610358e+15,-4,1,5,1,-1,-1,0,-1
1.59101182610358e+15,-1,-1,-2,-2,0,0,0,-2
1.59101182610458e+15,6,-0,-5,-1,-2,-2,-5,4
1.59101182610458e+15,-6,-2,-4,-2,0,0,-3,-4
1.59101182611854e+15,-6,-1,-3,-1,-2,-2,1,2
1.59101182611854e+15,2,2,5,0,-1,-1,2,1
1.59101182611954e+15,-6,-2,-3,-2,0,0,-1,-2
1.59101182611954e+15,-3,-6,-10,-2,-3,-3,-4,-19
1.59101182614053e+15,4,5,-2,-2,1,1,6,25
1.59101182614053e+15,-7,-2,1,-2,-2,-2,-3,-2
1.59101182614148e+15,-3,-2,-5,-3,-2,-2,1,-7
1.59101182614148e+15,3,-1,-3,-2,-3,-3,-3,-2
1.59101182616342e+15,1,-0,2,3,0,0,-3,-9
1.59101182616342e+15,2,5,9,-1,2,2,1,14
1.59101182616442e+15,-1,-1,0,-2,-1,-1,-1,0
1.59101182616442e+15,0,-1,-6,-4,-2,-2,0,1
1.59101182617838e+15,9,3,-4,0,-1,-1,0,11
1.59101182617838e+15,-5,-1,-1,2,0,0,-1,-1
1.59101182617938e+15,1,-2,-3,-1,-2,-2,-4,-5
1.59101182617938e+15,-14,-1,2,0,-2,-2,-1,2
1.59101182620036e+15,-1,-3,-3,-1,-1,-1,-5,-9
1.59101182620036e+15,0,-1,3,0,-2,-2,-2,-5
1.59101182620132e+15,1,1,2,0,-1,-1,0,4
1.59101182620132e+15,-5,-0,-2,-1,-1,-1,-2,4
1.5910118262243e+15,-11,-1,0,0,1,1,1,-4
1.5910118262243e+15,2,-0,-4,-1,-1,-1,-3,-2
1.5910118262243e+15,-5,-3,-1,0,0,0,-6,-12
1.5910118262243e+15,3,4,-1,0,-1,-1,7,13
1.59101182623822e+15,-2,-2,-4,0,-2,-2,-4,-6
1.59101182623822e+15,0,-2,-13,-2,1,1,4,-4
1.59101182623922e+15,-4,-0,12,-2,-1,-1,-3,-4
1.59101182623922e+15,1,1,0,1,0,0,2,2
1.59101182626119e+15,4,-0,-2,-4,-3,-3,-1,1
1.59101182626119e+15,-3,-1,-4,-1,-2,-2,0,-5
1.59101182626119e+15,0,-1,-8,-3,1,1,1,0
1.59101182626119e+15,4,3,1,-1,1,1,2,20
1.5910118262851e+15,0,-0,2,-2,-1,-1,1,-2
1.5910118262851e+15,-2,-1,0,-2,-2,-2,-4,-6
1.5910118262861e+15,-2,-0,-3,-2,-1,-1,1,6
1.5910118262861e+15,1,-2,1,-1,-1,-1,-5,-9
1.59101182629809e+15,3,2,2,2,0,0,1,-3
1.59101182629809e+15,0,1,1,2,0,0,-1,4
1.59101182629906e+15,3,-1,-7,-3,-3,-3,0,-1
1.59101182629906e+15,-6,-2,5,0,-1,-1,-4,-11
1.591011826321e+15,-4,-2,-5,-1,-2,-2,-2,-2
1.591011826321e+15,0,-0,5,0,-1,-1,-4,-2
1.591011826321e+15,2,1,0,0,1,1,1,-3
1.591011826321e+15,0,-0,-5,-2,-2,-2,-1,6
1.59101182634397e+15,-7,-2,2,-1,0,0,-3,-9
1.59101182634397e+15,0,-1,-1,-2,-3,-3,-2,2
1.59101182634494e+15,-6,-1,-7,0,-2,-2,-1,9
1.59101182634494e+15,-2,-1,1,-3,-2,-2,-1,-3
1.59101182635794e+15,2,-0,4,-2,-1,-1,-1,-2
1.59101182635794e+15,-5,-1,-5,-2,1,1,0,-1
1.5910118263589e+15,5,3,-2,0,-1,-1,4,7
1.5910118263589e+15,2,-1,-4,1,0,0,-2,-4
1.59101182638087e+15,-5,-0,4,2,-3,-3,-1,-1
1.59101182638087e+15,-1,-2,-8,-4,1,1,-1,-1
1.59101182638183e+15,0,1,6,1,-1,-1,-4,2
1.59101182638183e+15,-2,-1,-5,-3,-1,-1,0,-3
1.59101182640378e+15,-9,-4,-4,-3,-2,-2,-5,-11
1.59101182640378e+15,7,3,5,3,-1,-1,2,0
1.59101182640478e+15,-4,-2,-3,-2,-1,-1,-4,-4
1.59101182640478e+15,-8,-1,2,-1,-1,-1,0,-5
1.59101182641779e+15,7,3,-8,-3,1,1,1,14
1.59101182641779e+15,-3,-1,0,-1,-4,-4,-2,-4
1.59101182641874e+15,-2,-1,4,-4,0,0,-1,-3
1.59101182641874e+15,-3,-1,0,-1,-1,-1,-4,-2
1.5910118264408e+15,-3,-2,-8,-1,-1,-1,-2,-5
1.5910118264408e+15,-4,-2,0,-2,-2,-2,-5,-3
1.59101182644168e+15,0,-0,-7,0,0,0,2,2
1.59101182644168e+15,-4,-2,2,-3,-3,-3,-1,-5
1.59101182646362e+15,3,1,1,1,0,0,-2,1
1.59101182646362e+15,-8,-3,-1,-2,-4,-4,-3,-7
1.59101182646461e+15,7,1,-1,2,-2,-2,0,-2
1.59101182646461e+15,-2,-2,-4,0,-1,-1,-2,-9
1.59101182648656e+15,-2,-0,0,-3,-1,-1,-1,3
1.59101182648656e+15,-2,-1,-3,-1,-1,-1,2,-4
1.59101182648756e+15,0,1,0,-4,-1,-1,-2,10
1.59101182648756e+15,-8,-1,-2,-3,-1,-1,1,0
1.59101182650054e+15,-3,-1,2,0,0,0,-2,0
1.59101182650054e+15,-1,-0,0,1,1,1,-1,-2
1.59101182650152e+15,-4,-2,1,3,-1,-1,-2,-9
1.59101182650152e+15,-4,-2,-1,-1,-3,-3,-3,-3
1.5910118265245e+15,6,1,-3,-5,-1,-1,3,4
1.5910118265245e+15,-5,-1,3,0,-1,-1,-3,0
1.5910118265245e+15,-8,-4,-3,0,-5,-5,-2,-13
1.5910118265245e+15,1,-4,-6,-4,-3,-3,-6,-7
1.59101182653742e+15,1,1,6,1,-3,-3,0,1
1.59101182653742e+15,4,-1,-6,-1,0,0,-1,-2
1.59101182654641e+15,0,3,7,0,0,0,1,8
1.59101182654641e+15,1,-1,-10,-2,2,2,0,-2
1.59101182656136e+15,-2,-1,1,-5,0,0,-3,-3
1.59101182656136e+15,-1,-0,3,0,-1,-1,1,-2
1.59101182656136e+15,-3,-2,-6,-2,-1,-1,-2,-2
1.59101182656136e+15,10,2,0,0,-1,-1,1,6
1.59101182658442e+15,-5,-3,-1,0,-3,-3,-3,-10
1.59101182658442e+15,-8,-3,-3,-3,-1,-1,-2,-4
1.59101182658442e+15,-1,-1,1,-3,-1,-1,0,-7
1.59101182658442e+15,-6,-1,-1,-2,-1,-1,-1,2
1.59101182659826e+15,-2,1,-2,1,1,1,0,1
1.59101182659826e+15,7,3,0,1,0,0,0,9
1.59101182660624e+15,-6,-3,-7,-1,-3,-3,-4,-6
1.59101182660624e+15,-1,-0,1,-1,-1,-1,-2,3
1.5910118266202e+15,0,-0,-2,-1,0,0,-3,1
1.5910118266202e+15,-4,-2,-8,-2,0,0,-1,3
1.59101182662119e+15,1,3,9,3,0,0,1,5
1.59101182662119e+15,4,1,-2,-1,0,0,-1,2
1.59101182664429e+15,2,-2,-7,-4,-4,-4,2,-5
1.59101182664429e+15,-2,-0,-2,3,2,2,-1,-3
1.59101182664528e+15,1,1,7,-2,0,0,0,1
1.59101182664528e+15,-1,-2,0,-1,-1,-1,-1,-9
1.59101182665811e+15,-10,-5,-9,-5,-4,-4,0,-4
1.59101182665811e+15,7,-0,-1,-4,-5,-5,0,0
1.59101182666622e+15,2,-2,-5,-2,-1,-1,-3,-3
1.59101182666622e+15,1,1,1,0,0,0,3,1
1.59101182668118e+15,3,2,-3,2,1,1,0,3
1.59101182668118e+15,-2,-1,-2,-3,-1,-1,0,-1
1.59101182668206e+15,-5,-1,0,-2,-1,-1,-2,-4
1.59101182668206e+15,4,-1,-4,-4,-1,-1,-1,-2
1.59101182670404e+15,2,1,4,0,-1,-1,1,2
1.59101182670404e+15,-4,-0,6,0,0,0,-1,-4
1.59101182670497e+15,3,2,-2,-2,0,0,3,15
1.59101182670497e+15,-4,-2,-2,0,-3,-3,-4,-2
1.59101182671797e+15,-1,1,-1,0,2,2,-2,4
1.59101182671797e+15,-1,-0,0,-1,-1,-1,-2,-4
1.5910118267329e+15,-6,-2,-3,0,-1,-1,-2,-6
1.5910118267329e+15,4,2,5,0,0,0,1,4
1.59101182674202e+15,-7,-3,-10,-1,1,1,-1,-3
1.59101182674202e+15,-7,-3,1,-3,-1,-1,-2,-8
1.59101182674202e+15,2,-0,-2,-1,2,2,-1,-4
1.59101182674202e+15,-8,-1,0,0,-1,-1,0,5
1.59101182676421e+15,6,-0,3,0,-2,-2,-2,-6
1.59101182676421e+15,0,2,-2,0,2,2,0,8
1.59101182676421e+15,-8,-5,-8,-4,-3,-3,-3,-15
1.59101182676421e+15,17,5,9,1,0,0,0,4
1.59101182677821e+15,1,-1,2,1,-1,-1,-6,-4
1.59101182677821e+15,3,1,-1,-1,-1,-1,-1,9
1.59101182679317e+15,2,-0,3,-2,-1,-1,-1,-1
1.59101182679317e+15,-2,-2,-7,1,0,0,-1,-2
1.59101182680114e+15,-4,-3,-8,-3,-3,-3,-1,-6
1.59101182680114e+15,3,1,3,2,-1,-1,-1,-2
1.59101182680114e+15,-2,-2,-2,-2,-3,-3,-2,-8
1.59101182680114e+15,-3,-1,0,0,-1,-1,-3,-3
1.59101182682407e+15,1,-0,-1,0,-2,-2,0,1
1.59101182682407e+15,2,-0,-1,-3,-2,-2,-1,1
1.59101182682507e+15,-6,-2,-10,-1,0,0,-1,-3
1.59101182682507e+15,-5,-2,-2,-3,-2,-2,-1,1
1.59101182684613e+15,0,-0,0,0,0,0,2,0
1.59101182684613e+15,4,-0,-3,-1,-3,-3,-2,0
1.59101182684698e+15,-4,-0,-2,-1,-2,-2,1,1
1.59101182684698e+15,-5,-2,3,0,0,0,-3,-10
1.59101182686109e+15,3,3,-7,0,1,1,1,14
1.59101182686109e+15,0,-1,2,-3,0,0,-2,-4
1.59101182686205e+15,-9,-3,-1,-4,-3,-3,-5,3
1.59101182686205e+15,-3,-1,-4,-2,0,0,-1,3
1.59101182688403e+15,0,-0,2,-3,-2,-2,0,-1
1.59101182688403e+15,-5,-1,-2,1,1,1,-2,-5
1.59101182688488e+15,3,1,1,-1,1,1,-1,1
1.59101182688488e+15,0,-1,-3,-1,1,1,-1,-5
1.59101182690685e+15,1,1,5,-1,0,0,0,0
1.59101182690685e+15,-1,-0,-5,-2,-2,-2,-1,6
1.59101182690685e+15,1,1,3,0,-1,-1,1,-2
1.59101182690685e+15,-7,-3,-2,-2,-4,-4,-3,-6
1.59101182692093e+15,0,1,6,0,-1,-1,-1,-2
1.59101182692093e+15,-7,-5,-10,-1,-1,-1,-1,-14
1.59101182692178e+15,-3,1,-2,0,0,0,0,5
1.59101182692178e+15,1,-1,-5,-4,-4,-4,0,1
1.5910118269428e+15,-7,-1,5,0,0,0,-1,-3
1.5910118269428e+15,-1,-0,2,-2,-3,-3,-2,2
1.59101182694373e+15,-2,-3,-3,-3,-2,-2,-1,-5
1.59101182694373e+15,-6,-3,-13,-2,1,1,-1,-5
1.59101182696667e+15,7,2,9,-3,-3,-3,-3,5
1.59101182696667e+15,5,3,1,0,-1,-1,1,9
1.59101182696766e+15,1,1,-1,0,1,1,-2,2
1.59101182696766e+15,1,-0,0,-1,-1,-1,-2,1
1.59101182698067e+15,-1,-2,-4,-1,-1,-1,-1,-7
1.59101182698067e+15,2,3,-3,-2,0,0,4,11
1.59101182698163e+15,-3,-3,-1,-3,-4,-4,-2,-7
1.59101182698163e+15,1,1,1,-1,-1,-1,1,-2
1.59101182700357e+15,-5,-2,-4,1,-1,-1,-1,-3
1.59101182700357e+15,0,1,1,0,0,0,-1,0
1.59101182700357e+15,1,1,-1,0,2,2,3,2
1.59101182700357e+15,-1,-1,-1,-1,-4,-4,-3,3
1.59101182703349e+15,-7,-2,5,0,-1,-1,-3,-8
1.59101182703349e+15,-5,-2,2,-3,-2,-2,-2,-4
1.59101182703449e+15,4,-0,0,-2,-2,-2,-1,-2
1.59101182703449e+15,6,3,0,0,0,0,-1,13
1.59101182704146e+15,6,-0,-8,-3,-2,-2,3,1
1.59101182704146e+15,0,-1,-1,-2,0,0,-3,-3
1.59101182704146e+15,-2,-2,-6,-4,-1,-1,-2,2
1.59101182704146e+15,3,-0,-2,1,0,0,2,0
1.59101182706341e+15,-5,-2,0,1,-1,-1,-1,-9
1.59101182706341e+15,-11,-3,-2,-2,1,1,-3,-6
1.5910118270644e+15,-7,-1,1,2,-2,-2,-5,-3
1.5910118270644e+15,-1,-0,2,-1,-1,-1,1,-5
1.59101182708637e+15,-1,-2,-7,-4,-2,-2,-2,0
1.59101182708637e+15,2,-0,-1,0,-2,-2,1,0
1.59101182708734e+15,-3,-1,-1,1,1,1,-4,-7
1.59101182708734e+15,1,1,1,-1,-1,-1,0,2
1.59101182710045e+15,-6,-2,1,-2,-1,-1,-1,-7
1.59101182710045e+15,-6,1,6,2,0,0,1,2
1.5910118271013e+15,1,-1,-8,-2,0,0,1,1
1.5910118271013e+15,0,-0,2,0,0,0,0,-1
1.59101182713147e+15,-3,-1,-2,-2,-1,-1,0,-1
1.59101182713147e+15,1,-2,-3,-2,-3,-3,-4,-4
1.59101182713243e+15,3,1,5,0,-2,-2,3,-2
1.59101182713243e+15,4,-2,-6,-2,-3,-3,-4,2
1.59101182714751e+15,-5,-0,3,1,-1,-1,-2,-1
1.59101182714751e+15,0,-1,-4,-1,-1,-1,-1,-1
1.59101182714751e+15,-4,-0,1,-1,1,1,0,0
1.59101182714751e+15,2,-0,-1,-2,-1,-1,1,-3
1.59101182716085e+15,5,-0,-6,-1,1,1,-4,2
1.59101182716085e+15,-2,-0,-9,0,2,2,1,-3
1.59101182716163e+15,3,-0,6,-3,-7,-7,-4,2
1.59101182716163e+15,-4,1,2,0,0,0,0,1
1.59101182718359e+15,-6,-3,-2,-1,-5,-5,-4,-3
1.59101182718359e+15,-7,-3,-4,-1,-1,-1,-3,-8
1.59101182718359e+15,1,-1,-4,-1,0,0,0,-4
1.59101182718359e+15,-6,-2,1,-2,-1,-1,-2,-5
1.59101182721354e+15,1,1,0,1,1,1,-2,0
1.59101182721354e+15,4,-0,-3,-1,-4,-4,-1,5
1.59101182721449e+15,-3,-1,-2,-1,-2,-2,-1,-2
1.59101182721449e+15,-2,-0,1,0,1,1,-3,-1
1.59101182722052e+15,1,-0,-2,1,-1,-1,1,-2
1.59101182722052e+15,2,1,4,0,0,0,0,-5
1.59101182722147e+15,3,2,-1,-2,1,1,1,9
1.59101182722147e+15,0,-1,-3,0,0,0,2,-13
1.59101182724341e+15,-6,-1,2,-2,-1,-1,-3,-3
1.59101182724341e+15,4,-0,1,-3,-1,-1,-2,0
1.59101182724441e+15,3,-0,-1,-1,0,0,0,-5
1.59101182724441e+15,-4,-2,-2,1,-2,-2,-1,-3
1.59101182726644e+15,2,-0,0,0,-1,-1,-1,-1
1.59101182726644e+15,-2,-0,1,-1,-3,-3,0,-1
1.59101182726721e+15,-1,1,0,-2,0,0,-1,7
1.59101182726721e+15,1,-1,-7,-1,-2,-2,-3,0
1.59101182728139e+15,-3,3,10,2,2,2,1,4
1.59101182728139e+15,0,-1,-2,2,-3,-3,1,-5
1.59101182728139e+15,-2,-1,1,1,-1,-1,0,-5
1.59101182728139e+15,-3,-2,-5,-3,-2,-2,-2,0
1.59101182730312e+15,4,-0,-10,-2,0,0,0,1
1.59101182730312e+15,-7,-1,-2,-2,-1,-1,-1,-4
1.59101182730412e+15,7,3,2,-1,-2,-2,-2,14
1.59101182730412e+15,1,2,2,0,1,1,1,4
1.5910118273261e+15,-7,-3,-6,-3,-1,-1,-2,-3
1.5910118273261e+15,-1,-0,2,0,-1,-1,-1,3
1.59101182732706e+15,-2,-1,-5,-2,0,0,0,-3
1.59101182732706e+15,1,-0,1,-1,-2,-2,-2,-2
1.59101182734107e+15,1,-1,-1,-2,-1,-1,-2,-5
1.59101182734107e+15,-4,-2,-1,-2,-2,-2,-2,-4
1.59101182734804e+15,-2,-0,-4,-2,-1,-1,0,7
1.59101182734804e+15,1,-0,0,-2,-1,-1,-1,2
1.59101182736299e+15,-5,-4,-2,0,-2,-2,-4,-15
1.59101182736299e+15,-5,-3,-7,-4,-2,-2,-2,-3
1.59101182736396e+15,1,2,15,2,0,0,-1,-13
1.59101182736396e+15,-4,-1,-7,-3,-1,-1,2,1
1.59101182738689e+15,3,2,1,2,-5,-5,-4,16
1.59101182738689e+15,-4,-0,4,1,0,0,-1,-4
1.59101182738689e+15,-7,-4,-11,-1,-3,-3,0,-7
1.59101182738689e+15,-2,-0,3,1,2,2,-1,-5
1.59101182740088e+15,-2,1,1,0,1,1,2,-1
1.59101182740088e+15,-11,-5,-10,-4,-1,-1,-6,-4
1.59101182740188e+15,-2,2,0,-1,-2,-2,1,14
1.59101182740188e+15,0,-1,0,-1,-1,-1,-3,-3
1.59101182742387e+15,2,-1,-7,-4,1,1,1,0
1.59101182742387e+15,2,1,4,-2,-2,-2,-2,2
1.59101182742479e+15,-3,-2,-3,-2,0,0,-2,-6
1.59101182742479e+15,-4,1,4,2,-1,-1,0,0
1.5910118274468e+15,-2,-1,-2,-1,-1,-1,-2,1
1.5910118274468e+15,4,-1,-7,-4,0,0,-1,-1
1.59101182744773e+15,4,2,7,1,1,1,-1,0
1.59101182744773e+15,-2,1,0,2,0,0,0,3
1.59101182745973e+15,-5,-4,-3,-1,-3,-3,-2,-16
1.59101182745973e+15,1,-0,-1,1,0,0,-3,-2
1.5910118274687e+15,-3,-2,-2,-2,-3,-3,-2,-4
1.5910118274687e+15,-4,1,8,-1,1,1,1,0
1.59101182748363e+15,1,-1,0,0,-5,-5,-6,2
1.59101182748363e+15,-1,-1,-4,1,-1,-1,1,-2
1.59101182748363e+15,-1,-0,-3,-1,-2,-2,1,2
1.59101182748363e+15,2,-2,-3,-1,-1,-1,-3,-9
1.59101182750558e+15,4,-0,3,-3,-1,-1,-4,-6
1.59101182750558e+15,1,2,4,-1,-2,-2,2,3
1.59101182751355e+15,-1,-1,-5,0,1,1,-1,-5
1.59101182751355e+15,-1,-1,-3,-2,-2,-2,-2,-1
1.59101182752053e+15,-2,-1,-1,-1,2,2,1,-4
1.59101182752053e+15,0,1,1,1,0,0,-2,5
1.59101182752857e+15,0,-1,0,0,-2,-2,0,-4
1.59101182752857e+15,-3,-4,-14,-2,-4,-4,-4,-1
1.59101182754348e+15,-7,2,8,1,2,2,1,1
1.59101182754348e+15,-1,-0,4,-2,-1,-1,0,1
1.59101182754447e+15,-6,-3,-4,-2,-1,-1,-2,-7
1.59101182754447e+15,-2,-1,-9,-2,-1,-1,0,5
1.59101182756641e+15,4,4,9,-2,-1,-1,-1,13
1.59101182756641e+15,-7,-3,1,1,-2,-2,-2,-16
1.59101182756741e+15,-7,-1,-5,-4,-1,-1,2,5
1.59101182756741e+15,1,-0,6,0,-2,-2,-3,-6
1.59101182758043e+15,3,-0,-7,1,1,1,0,3
1.59101182758043e+15,2,1,-1,-1,-1,-1,-1,7
1.5910118275884e+15,-1,-2,-2,-1,1,1,-1,-14
1.5910118275884e+15,5,1,2,1,-2,-2,2,-2
1.59101182760351e+15,-1,-2,-9,-4,-2,-2,-2,4
1.59101182760351e+15,7,2,3,1,-2,-2,0,0
1.59101182760451e+15,-5,-2,-3,0,-1,-1,-4,-2
1.59101182760451e+15,-11,-4,-1,-2,-2,-2,-3,-11
1.59101182762645e+15,0,1,-5,0,-1,-1,0,5
1.59101182762645e+15,2,-0,1,-2,0,0,0,-5
1.59101182762745e+15,1,-0,-2,-1,-3,-3,-2,-1
1.59101182762745e+15,2,-0,-2,-3,-1,-1,-1,5
1.59101182764055e+15,3,2,1,1,0,0,2,-2
1.59101182764055e+15,-4,-1,-4,-2,-2,-2,3,5
1.59101182764839e+15,0,-0,2,0,0,0,-2,1
1.59101182764839e+15,0,-1,2,0,1,1,-4,-4
1.59101182766335e+15,-2,-3,-3,-2,-3,-3,-3,-11
1.59101182766335e+15,-1,-0,-2,-4,0,0,-1,6
1.59101182766435e+15,-5,-0,3,0,-2,-2,0,3
1.59101182766435e+15,-1,-0,0,0,0,0,-1,2
1.59101182768631e+15,0,-2,-7,-3,-2,-2,-2,1
1.59101182768631e+15,-7,-4,0,-1,-3,-3,-2,-15
1.59101182768729e+15,2,-0,-8,-3,-2,-2,2,1
1.59101182768729e+15,-6,-1,8,-2,-1,-1,-2,-4
1.59101182769995e+15,-6,-2,1,-1,-2,-2,-2,-3
1.59101182769995e+15,6,2,-4,-1,2,2,0,6
1.59101182770789e+15,4,-0,-1,-2,1,1,-2,-4
1.59101182770789e+15,-2,-0,-1,1,-3,-3,1,2
1.59101182772282e+15,-1,-0,2,-1,-1,-1,-2,0
1.59101182772282e+15,1,-0,-1,-2,-2,-2,3,2
1.59101182772378e+15,0,-3,-4,-4,0,0,-4,-14
1.59101182772378e+15,-1,-1,-2,-2,-2,-2,-2,0
1.59101182775427e+15,-3,-0,0,0,-1,-1,-2,-3
1.59101182775427e+15,-6,-1,-1,-4,-1,-1,-1,2
1.59101182775427e+15,2,-1,-1,-1,-2,-2,-5,-5
1.59101182775427e+15,2,-0,-8,-3,1,1,1,8
1.59101182776926e+15,-7,-2,-3,0,0,0,1,-6
1.59101182776926e+15,-3,-0,-4,-2,0,0,-2,10
1.59101182777023e+15,1,-0,-3,-2,-3,-3,0,5
1.59101182777023e+15,-4,-1,5,-2,-2,-2,-3,-7
1.59101182778421e+15,4,-0,2,-3,-2,-2,-2,1
1.59101182778421e+15,-3,-2,-2,-1,-4,-4,-3,-7
1.59101182779121e+15,-3,-0,0,1,-2,-2,-1,2
1.59101182779121e+15,4,3,1,1,0,0,1,8
1.59101182780698e+15,-8,-3,-6,-2,-1,-1,1,-6
1.59101182780698e+15,3,-1,-6,-2,-1,-1,-3,4
1.59101182780794e+15,1,1,6,-1,0,0,1,0
1.59101182780794e+15,0,-1,-4,-2,0,0,0,-3
1.59101182782888e+15,-2,-0,-3,2,1,1,0,0
1.59101182782888e+15,1,-1,-4,-3,-1,-1,-1,-4
1.59101182783586e+15,1,1,-3,2,1,1,-1,0
1.59101182783586e+15,-3,-0,2,2,-1,-1,-1,-5
1.59101182784285e+15,2,-0,-1,-2,-2,-2,-2,3
1.59101182784285e+15,1,-0,3,1,-1,-1,-1,-2
1.59101182784384e+15,8,-1,-15,-3,-2,-2,-1,4
1.59101182784384e+15,-4,-4,5,-5,-2,-2,-4,-19
1.59101182786678e+15,6,2,-1,-1,-3,-3,2,3
1.59101182786678e+15,-5,1,5,2,1,1,1,-3
1.59101182786777e+15,-3,-1,2,-1,0,0,-4,-5
1.59101182786777e+15,-8,-3,-2,1,0,0,1,-13
1.59101182788886e+15,0,2,0,1,0,0,-3,8
1.59101182788886e+15,1,-1,-4,-2,-3,-3,-3,-1
1.59101182788971e+15,-3,1,4,1,-1,-1,0,2
1.59101182788971e+15,-2,-0,-4,-1,1,1,0,-1
1.59101182790374e+15,-2,-3,-4,-3,-2,-2,-2,-3
1.59101182790374e+15,0,-0,-5,0,1,1,2,-1
1.59101182790374e+15,-6,-1,2,-2,-1,-1,-1,-3
1.59101182790374e+15,-4,-0,-3,1,-1,-1,1,4
1.59101182792661e+15,0,-2,0,-3,-3,-3,-5,-7
1.59101182792661e+15,4,-0,-1,-2,0,0,-1,0
1.59101182792773e+15,-1,-0,3,1,-1,-1,2,-6
1.59101182792773e+15,1,-0,-1,-2,-2,-2,-4,3
1.59101182794863e+15,-13,-3,1,2,1,1,-1,-9
1.59101182794863e+15,-8,-3,-6,-1,1,1,-1,-10
1.59101182794955e+15,1,2,9,-1,-3,-3,-3,8
1.59101182794955e+15,4,1,-6,-1,-1,-1,0,4
1.59101182796352e+15,-3,1,7,-1,-3,-3,0,0
1.59101182796352e+15,5,-1,0,-1,-4,-4,-3,-4
1.59101182796451e+15,-7,-2,-4,0,-1,-1,-1,-2
1.59101182796451e+15,4,1,-4,-4,0,0,1,10
1.59101182798646e+15,2,-0,-6,-2,0,0,2,0
1.59101182798646e+15,-5,1,9,1,-1,-1,0,-2
1.59101182798745e+15,0,-0,0,-1,1,1,0,0
1.59101182798745e+15,-6,-1,-1,-1,-3,-3,-3,1
1.59101182800939e+15,-1,-2,-1,-4,-1,-1,0,-10
1.59101182800939e+15,-4,-1,-2,-2,-1,-1,0,1
1.59101182800939e+15,0,-1,-6,-2,0,0,-1,-2
1.59101182800939e+15,1,-1,-1,0,-1,-1,2,-9
1.59101182802336e+15,3,2,-2,-2,1,1,1,7
1.59101182802336e+15,-5,-2,1,-3,-1,-1,-2,-1
1.59101182802435e+15,0,-0,3,-1,-2,-2,-1,-1
1.59101182802435e+15,2,-1,-5,-1,-2,-2,-1,-2
1.59101182804634e+15,-1,-1,-3,-1,-2,-2,-3,0
1.59101182804634e+15,2,-0,-1,-1,-2,-2,-2,-1
1.59101182804729e+15,-3,-0,-4,-1,0,0,1,1
1.59101182804729e+15,-11,-2,-2,-3,-2,-2,-3,5
1.59101182806924e+15,1,-2,-4,-3,-2,-2,-1,-8
1.59101182806924e+15,1,1,0,0,0,0,-2,-3
1.59101182807023e+15,-2,1,-3,-2,-1,-1,-2,13
1.59101182807023e+15,2,-0,0,-3,-1,-1,1,0
1.5910118280832e+15,-6,-3,-2,0,-4,-4,-2,-4
1.5910118280832e+15,11,3,-1,-2,-2,-2,-2,11
1.59101182808419e+15,-4,-0,1,1,0,0,0,-5
1.59101182808419e+15,3,-0,-1,-2,0,0,-3,0
1.59101182810707e+15,0,-0,-3,-2,0,0,1,4
1.59101182810707e+15,0,-1,-4,-2,0,0,0,-4
1.59101182810779e+15,0,1,5,2,-2,-2,0,2
1.59101182810779e+15,0,-0,-12,-1,0,0,1,4
1.59101182812876e+15,-4,-0,16,0,-2,-2,-4,-5
1.59101182812876e+15,-3,-2,-5,-2,-1,-1,-3,2
1.59101182812975e+15,-1,-1,0,-3,-2,-2,0,-4
1.59101182812975e+15,6,-0,1,-1,-2,-2,-3,-4
1.5910118281517e+15,0,1,-7,1,1,1,-1,4
1.5910118281517e+15,-3,-1,0,0,-1,-1,0,-2
1.5910118281527e+15,0,-0,-6,-2,0,0,1,2
1.5910118281527e+15,-2,-0,12,-1,-3,-3,-3,-9
1.59101182816673e+15,2,-2,-3,-2,-3,-3,-4,-5
1.59101182816673e+15,-4,3,6,-1,0,0,6,11
1.59101182816763e+15,3,-2,-9,1,-2,-2,-2,-4
1.59101182816763e+15,-1,-2,-1,-1,-2,-2,-4,-1
1.59101182818867e+15,-1,-1,-3,-3,-1,-1,2,0
1.59101182818867e+15,-1,-2,-2,-1,-2,-2,-1,-7
1.59101182818957e+15,0,1,1,-1,1,1,-1,3
1.59101182818957e+15,-8,-0,-2,1,1,1,-1,2
1.59101182820254e+15,-1,-0,-2,0,-2,-2,-2,1
1.59101182820254e+15,0,-1,-1,-1,-4,-4,-1,-2
1.5910118282106e+15,0,-1,-3,-1,-1,-1,-3,-5
1.5910118282106e+15,-3,-1,-2,-2,0,0,-1,2
1.59101182822751e+15,0,-2,0,-1,-1,-1,1,-11
1.59101182822751e+15,3,-0,-1,-4,-4,-4,-2,4
1.59101182822751e+15,-6,-1,3,-1,-1,-1,-2,-7
1.59101182822751e+15,5,-0,-2,0,-1,-1,1,-2
1.59101182824944e+15,0,-0,-4,-1,0,0,-1,0
1.59101182824944e+15,-4,-3,-2,-1,-3,-3,-3,-9
1.59101182824944e+15,0,-0,0,0,-1,-1,-2,-3
1.59101182824944e+15,-1,-1,-3,-2,-4,-4,-2,1
1.59101182826338e+15,2,1,-3,0,0,0,2,2
1.59101182826338e+15,0,-1,-5,-1,1,1,2,-4
1.59101182826438e+15,-3,3,10,4,0,0,1,4
1.59101182826438e+15,-6,-5,-5,-2,-2,-2,-5,-20
1.59101182828631e+15,2,1,1,-3,-1,-1,1,11
1.59101182828631e+15,-4,-0,-1,1,3,3,2,-6
1.59101182828731e+15,4,1,-4,-3,-1,-1,-6,11
1.59101182828731e+15,-4,-0,3,0,-5,-5,-3,4
1.59101182830894e+15,-8,-2,0,-2,-2,-2,-2,0
1.59101182830894e+15,-3,-1,-2,0,0,0,-2,-5
1.59101182830994e+15,-1,-2,-5,-3,-3,-3,1,-5
1.59101182830994e+15,1,1,4,0,1,1,0,-1
1.59101182832294e+15,2,-1,-9,-1,-1,-1,-2,5
1.59101182832294e+15,-6,-2,6,0,-2,-2,-1,-5
1.5910118283239e+15,-4,-3,-3,-2,-1,-1,-1,-10
1.5910118283239e+15,0,1,0,-1,1,1,1,3
1.59101182834688e+15,2,-1,-3,-2,-3,-3,-1,-1
1.59101182834688e+15,-1,-0,-2,-1,-2,-2,0,2
1.59101182834688e+15,-3,-1,0,-4,-2,-2,0,-2
1.59101182834688e+15,0,-0,-5,-2,0,0,1,3
1.59101182837676e+15,-4,1,9,1,2,2,-1,-6
1.59101182837676e+15,-2,-3,-11,-3,-3,-3,-5,-5
1.59101182837676e+15,6,-1,-11,-2,-2,-2,-4,4
1.59101182837676e+15,3,3,6,0,0,0,3,3
1.59101182838275e+15,-11,-4,3,1,-3,-3,-4,-14
1.59101182838275e+15,-1,2,5,1,1,1,4,2
1.59101182839179e+15,-5,-2,-3,0,0,0,-1,-3
1.59101182839179e+15,10,2,0,-1,-2,-2,-2,4
1.59101182840688e+15,1,-1,-9,-1,-3,-3,-2,4
1.59101182840688e+15,3,-0,5,-1,-4,-4,-3,-2
1.59101182840688e+15,-2,-0,2,-2,0,0,3,-3
1.59101182840688e+15,-5,-3,-2,-2,0,0,-2,-5
1.59101182842881e+15,-2,-0,0,-1,-1,-1,1,0
1.59101182842881e+15,4,-0,-7,0,1,1,-1,2
1.59101182842977e+15,-3,-1,0,0,-1,-1,-2,-6
1.59101182842977e+15,-8,-2,0,0,-1,-1,-1,-10
1.59101182844279e+15,-1,1,0,-3,-1,-1,-1,8
1.59101182844279e+15,-2,-2,-9,-1,0,0,-2,-2
1.59101182845074e+15,3,3,2,1,-2,-2,2,6
1.59101182845074e+15,-8,-1,-2,-3,-1,-1,0,4
1.59101182846575e+15,-5,-3,-5,-2,-1,-1,-1,-6
1.59101182846575e+15,3,3,10,-1,-2,-2,0,6
1.59101182847969e+15,-1,-0,2,-1,-3,-3,0,-2
1.59101182847969e+15,2,-2,-5,-3,-1,-1,-3,-2
1.59101182848866e+15,0,-1,-4,-3,1,1,0,-3
1.59101182848866e+15,1,2,5,0,-1,-1,-2,5
1.59101182848963e+15,-3,-3,-14,-2,2,2,-1,-4
1.59101182848963e+15,-4,-1,6,-3,-3,-3,2,-2
1.5910118285022e+15,4,-1,-3,-3,-2,-2,-5,0
1.5910118285022e+15,-3,-1,3,1,-1,-1,0,-6
1.59101182851142e+15,4,-0,-6,-3,-2,-2,-3,9
1.59101182851142e+15,-2,-1,-1,1,0,0,-2,-4
1.59101182852626e+15,2,-0,-2,0,0,0,2,-2
1.59101182852626e+15,-1,-1,-8,-3,0,0,0,-1
1.59101182852821e+15,-3,1,3,1,0,0,-1,2
1.59101182852821e+15,-1,-3,-5,-4,-1,-1,-2,-1
1.59101182854937e+15,4,1,6,-2,-1,-1,-1,-1
1.59101182854937e+15,-1,-0,0,3,1,1,-4,-3
1.59101182855015e+15,-1,1,2,0,-2,-2,1,2
1.59101182855015e+15,-3,-2,-5,-1,0,0,-4,-10
1.59101182856235e+15,1,-0,-2,-3,-2,-2,0,5
1.59101182856235e+15,-5,-2,-9,1,0,0,0,-6
1.59101182857209e+15,-7,-3,6,-3,-3,-3,-2,-12
1.59101182857209e+15,6,2,0,-1,-4,-4,-4,13
1.59101182858705e+15,-1,1,3,1,-1,-1,-1,-2
1.59101182858705e+15,8,2,-6,-2,0,0,2,-1
1.59101182859319e+15,3,-1,1,-2,-2,-2,-2,-5
1.59101182859319e+15,-2,-2,-3,-3,-2,-2,2,-7
1.59101182860911e+15,1,1,-2,-1,1,1,0,3
1.59101182860911e+15,1,1,7,0,-3,-3,-3,2
1.5910118286101e+15,-3,-2,-6,0,-2,-2,-1,-6
1.5910118286101e+15,5,-0,-1,-1,0,0,-1,-1
1.59101182862207e+15,-5,-2,-3,1,-1,-1,-1,-6
1.59101182862207e+15,-1,-0,3,-3,-1,-1,1,1
1.59101182863205e+15,-5,-0,0,-1,-1,-1,0,4
1.59101182863205e+15,0,-1,-3,0,-1,-1,-1,1
1.591011828647e+15,0,1,-1,0,0,0,2,1
1.591011828647e+15,-3,-2,-2,-1,-3,-3,-3,-1
1.591011828648e+15,2,2,7,1,2,2,0,2
1.591011828648e+15,-4,-2,-1,-2,-3,-3,-4,0
1.59101182866997e+15,3,1,0,-1,0,0,-1,7
1.59101182866997e+15,-4,-1,-2,0,0,0,-2,-1
1.59101182867692e+15,5,1,2,0,0,0,-3,-2
1.59101182867692e+15,-13,-2,-5,-2,-1,-1,0,0
1.59101182868294e+15,-1,-1,4,-1,-2,-2,0,-6
1.59101182868294e+15,2,1,0,-2,-2,-2,-2,4
1.59101182869188e+15,-4,-5,-22,-4,0,0,-4,-5
1.59101182869188e+15,-2,1,13,3,-1,-1,-3,-6
1.59101182870684e+15,-3,-0,1,0,-4,-4,-3,4
1.59101182870684e+15,0,-0,0,-2,-2,-2,-1,-1
1.59101182870784e+15,-3,-1,-1,-2,-2,-2,-1,-5
1.59101182870784e+15,4,1,-4,-1,1,1,5,1
1.59101182872978e+15,-2,-2,-5,-2,-2,-2,-2,1
1.59101182872978e+15,-3,1,3,2,1,1,1,-1
1.59101182873078e+15,-2,-2,0,-2,-4,-4,-2,-1
1.59101182873078e+15,2,-0,-4,0,0,0,0,1
1.59101182875178e+15,5,1,3,-1,-3,-3,1,2
1.59101182875178e+15,-8,-2,-4,-3,0,0,-3,-3
1.59101182875892e+15,-2,-1,2,-1,-1,-1,-1,-4
1.59101182875892e+15,-1,2,-2,-1,1,1,0,14
1.59101182876679e+15,-1,-5,-6,-1,-2,-2,-7,-21
1.59101182876679e+15,10,1,-1,-1,-3,-3,0,0
1.59101182876769e+15,-3,-1,2,-2,-2,-2,-1,1
1.59101182876769e+15,-4,-4,-10,-1,-1,-1,-4,-9
1.59101182878863e+15,0,-1,-4,-1,1,1,0,-1
1.59101182878863e+15,-13,-3,2,-1,-1,-1,-2,-7
1.59101182879062e+15,0,-1,2,-2,-4,-4,-3,-2
1.59101182879062e+15,3,2,2,2,0,0,2,1
1.59101182881237e+15,-5,-2,-6,-3,0,0,0,-3
1.59101182881237e+15,8,1,-5,0,-1,-1,-3,6
1.59101182881407e+15,-4,1,-2,0,-1,-1,3,1
1.59101182881407e+15,-1,-1,1,-4,-1,-1,1,-4
1.59101182882604e+15,-4,-2,0,0,-1,-1,-5,-4
1.59101182882604e+15,-1,-1,-4,-2,-2,-2,1,1
1.59101182882804e+15,0,1,0,3,1,1,-1,-2
1.59101182882804e+15,0,-1,2,-2,-3,-3,-1,0
1.59101182884898e+15,-5,-1,-1,-2,-2,-2,0,-1
1.59101182884898e+15,0,2,-1,-1,2,2,1,3
1.59101182885097e+15,2,-0,0,0,-1,-1,-1,-1
1.59101182885097e+15,3,-2,-3,-4,-2,-2,-4,-7
1.59101182887199e+15,-6,-0,-4,-3,0,0,1,5
1.59101182887199e+15,3,-1,-2,0,0,0,-4,-7
1.59101182887292e+15,1,1,-1,-3,-2,-2,-2,15
1.59101182887292e+15,-7,-5,5,-1,-3,-3,-4,-22
1.59101182888588e+15,-1,1,0,-1,0,0,0,7
1.59101182888588e+15,-3,-2,-3,-2,-3,-3,-4,-3
1.59101182889998e+15,3,-1,-4,-1,-2,-2,-2,-3
1.59101182889998e+15,-3,1,2,1,2,2,0,2
1.59101182890906e+15,1,-1,-3,0,-3,-3,-1,-4
1.59101182890906e+15,-4,1,3,0,-1,-1,3,1
1.59101182891081e+15,-3,-1,-1,-3,0,0,-1,-4
1.59101182891081e+15,-2,-1,-8,-2,-2,-2,-1,6
1.59101182893183e+15,1,1,3,-1,-2,-2,1,-2
1.59101182893183e+15,-3,-3,-7,-2,0,0,-3,-9
1.59101182893276e+15,-4,-1,4,-4,-3,-3,-1,2
1.59101182893276e+15,4,1,-2,0,-1,-1,-1,3
1.59101182894692e+15,0,-0,7,0,0,0,-3,-3
1.59101182894692e+15,-1,-2,-10,-1,0,0,0,-3
1.5910118289538e+15,-3,-2,-5,1,-1,-1,-1,-6
1.5910118289538e+15,1,1,-5,-1,-1,-1,0,10
1.5910118289687e+15,-1,-1,-4,-2,-3,-3,-2,2
1.5910118289687e+15,-11,-2,3,-3,-3,-3,0,-2
1.59101182897066e+15,-7,-2,-4,-1,3,3,-1,-9
1.59101182897066e+15,2,-0,1,-2,-1,-1,-3,2
1.5910118289916e+15,-7,-1,2,1,-2,-2,1,-6
1.5910118289916e+15,4,-0,-5,-2,-2,-2,-3,3
1.5910118289926e+15,1,1,3,-1,0,0,0,3
1.5910118289926e+15,-5,-2,-2,-1,0,0,-2,-9
1.5910118290056e+15,-4,-2,-3,-2,-2,-2,-2,-3
1.5910118290056e+15,4,-1,-2,-4,-1,-1,-3,-2
1.59101182901254e+15,2,-1,-2,0,-3,-3,-3,-2
1.59101182901254e+15,1,-2,-4,-1,-1,-1,0,-8
1.5910118290307e+15,-1,2,5,2,-1,-1,1,7
1.5910118290307e+15,-4,-1,1,-2,-2,-2,-2,-1
1.59101182903548e+15,3,-1,-5,-2,1,1,0,-3
1.59101182903548e+15,-3,-2,4,1,-3,-3,-3,-6
1.59101182905144e+15,-5,-3,-7,-4,1,1,-2,-4
1.59101182905144e+15,-1,-1,-2,-1,-3,-3,-1,-4
1.59101182905345e+15,-1,-0,-1,-3,-1,-1,0,2
1.59101182905345e+15,-6,-1,2,-2,-1,-1,0,-1
1.59101182906541e+15,7,3,-1,2,0,0,2,4
1.59101182906541e+15,-6,-2,4,-1,0,0,-3,-5
1.59101182907257e+15,0,-2,-3,0,-2,-2,-3,-4
1.59101182907257e+15,0,-0,-1,-3,-3,-3,0,3
1.59101182908942e+15,0,-1,-5,-2,-3,-3,-1,1
1.59101182908942e+15,1,5,5,1,2,2,5,11
1.59101182909133e+15,2,-1,-2,0,-2,-2,0,-2
1.59101182909133e+15,-3,-0,0,0,1,1,0,0
1.59101182911926e+15,0,-3,-1,-3,1,1,-2,-15
1.59101182911926e+15,2,-0,-8,-2,-3,-3,-2,5
1.59101182912025e+15,-5,-1,5,-1,-2,-2,-2,-5
1.59101182912025e+15,3,2,8,1,-2,-2,3,0
1.59101182912626e+15,-2,-5,-14,-1,-3,-3,-6,-9
1.59101182912626e+15,0,-0,-1,-3,0,0,-1,4
1.59101182913223e+15,3,1,7,2,-1,-1,-2,-3
1.59101182913223e+15,-5,-4,-5,-4,-3,-3,-3,-11
1.59101182914918e+15,6,4,5,2,0,0,3,13
1.59101182914918e+15,3,-2,-3,-2,-3,-3,-2,-3
1.59101182915018e+15,-3,-2,-6,-2,-2,-2,-1,-2
1.59101182915018e+15,2,1,-1,0,0,0,0,7
1.5910118291722e+15,-5,-3,-1,-2,-3,-3,-3,-4
1.5910118291722e+15,3,1,-1,0,2,2,1,-1
1.5910118291771e+15,4,1,5,-3,0,0,1,0
1.5910118291771e+15,-4,-2,-6,-2,0,0,-1,2
1.59101182918611e+15,-2,-1,1,-5,-1,-1,0,0
1.59101182918611e+15,-2,1,-1,-1,-1,-1,0,4
1.59101182919215e+15,-3,-3,-8,0,-3,-3,-3,-7
1.59101182919215e+15,-3,-1,3,-1,-1,-1,1,-6
1.59101182920902e+15,2,2,6,0,-4,-4,0,8
1.59101182920902e+15,-4,-3,-1,0,-1,-1,-3,-11
1.59101182921105e+15,2,1,-4,-4,-1,-1,2,10
1.59101182921105e+15,-2,-0,-3,-2,1,1,-3,1
1.59101182923211e+15,-1,-1,-1,0,0,0,-2,-8
1.59101182923211e+15,-3,-1,2,-2,-2,-2,-3,-7
1.59101182923296e+15,-1,-0,-2,-2,0,0,-2,1
1.59101182923296e+15,3,1,-2,2,-1,-1,1,2
1.591011829245e+15,-6,-0,3,-1,0,0,0,1
1.591011829245e+15,0,-1,-4,2,-3,-3,-1,-1
1.5910118292539e+15,-2,-2,2,-1,-1,-1,-1,-5
1.5910118292539e+15,4,1,-4,-1,-2,-2,-1,9
1.59101182926986e+15,4,-1,-4,1,0,0,-2,-10
1.59101182926986e+15,-3,2,2,0,-1,-1,3,14
1.59101182927085e+15,7,-0,-7,-1,-1,-1,0,-2
1.59101182927085e+15,3,-1,-2,-4,-2,-2,-7,6
1.59101182929203e+15,-1,-2,-6,1,-1,-1,-2,-3
1.59101182929203e+15,-4,-2,0,-2,1,1,-2,-9
1.59101182929283e+15,-4,1,3,0,0,0,0,3
1.59101182929283e+15,-2,-2,-4,-5,-2,-2,-1,-1
1.59101182930486e+15,2,1,0,-1,1,1,0,0
1.59101182930486e+15,-3,-2,-2,-1,-2,-2,-2,2
1.59101182931383e+15,-1,1,-2,-2,0,0,0,7
1.59101182931383e+15,0,-2,-8,-1,-1,-1,0,-2
1.59101182932899e+15,-5,-1,4,-3,-2,-2,0,-1
1.59101182932899e+15,-1,-0,0,-2,-1,-1,0,-3
1.59101182933073e+15,0,-2,-3,-3,-3,-3,-3,-6
1.59101182933073e+15,1,2,2,1,1,1,2,3
1.5910118293517e+15,-1,-0,-2,-1,-3,-3,-1,2
1.5910118293517e+15,-1,-0,0,-1,1,1,2,-5
1.59101182935268e+15,-3,-2,-4,-4,-3,-3,-3,-2
1.59101182935268e+15,-5,-1,2,-1,-2,-2,0,-7
1.59101182937368e+15,-4,1,-3,-1,1,1,2,4
1.59101182937368e+15,5,2,5,2,-1,-1,-1,-3
1.59101182937561e+15,-9,-0,-3,2,2,2,1,0
1.59101182937561e+15,0,-3,-2,-2,-4,-4,2,-14
1.59101182938957e+15,9,4,-2,-3,-1,-1,4,15
1.59101182938957e+15,-1,-2,-5,-1,-4,-4,-3,-4
1.59101182939556e+15,-7,-1,0,-4,-3,-3,1,0
1.59101182939556e+15,4,1,3,2,2,2,-4,-3
1.59101182941152e+15,-5,-2,-4,-1,-2,-2,-5,-3
1.59101182941152e+15,0,-1,-3,-1,-1,-1,-5,-1
1.59101182941351e+15,-1,-1,1,1,-1,-1,-5,0
1.59101182941351e+15,0,-0,-4,0,-1,-1,-2,1
1.5910118294255e+15,-8,-1,2,-1,2,2,-4,-4
1.5910118294255e+15,0,-0,-3,0,-2,-2,-2,2
1.59101182943445e+15,1,-0,2,0,-1,-1,-4,-3
1.59101182943445e+15,-4,-1,0,-1,-1,-1,-4,0
1.59101182944943e+15,3,-0,3,-1,-1,-1,-4,-2
1.59101182944943e+15,-5,-4,-10,0,-1,-1,-2,-11
1.59101182945041e+15,2,-0,-6,0,0,0,-1,8
1.59101182945041e+15,0,1,0,0,0,0,1,5
1.59101182947163e+15,0,-2,-6,0,-2,-2,-3,-7
1.59101182947163e+15,1,-1,-2,-6,-2,-2,-1,1
1.59101182947335e+15,-4,-1,1,2,-1,-1,-2,-9
1.59101182947335e+15,2,1,1,0,-1,-1,-1,-1
1.59101182948532e+15,6,-0,-4,-3,-3,-3,-4,9
1.59101182948532e+15,-2,1,1,-1,-2,-2,4,5
1.5910118294943e+15,2,1,5,2,0,0,-1,-4
1.5910118294943e+15,-5,-1,-5,-4,-1,-1,1,3
1.59101182950926e+15,-8,-1,0,-1,1,1,0,-5
1.59101182950926e+15,-1,-2,-2,-4,-2,-2,-1,-1
1.59101182951025e+15,-1,-0,-1,-2,-1,-1,-1,-1
1.59101182951025e+15,-3,-2,-5,2,-1,-1,-2,-8
1.59101182953224e+15,1,1,8,2,-1,-1,-1,-5
1.59101182953224e+15,-3,-0,-4,-1,0,0,2,6
1.5910118295332e+15,-2,1,1,-1,0,0,1,1
1.5910118295332e+15,3,-1,-3,-1,-3,-3,-1,-2
1.59101182954516e+15,0,-1,-4,-1,-1,-1,0,-3
1.59101182954516e+15,-3,-1,3,1,0,0,-2,-7
1.59101182955414e+15,3,-1,-2,-1,-1,-1,-2,-2
1.59101182955414e+15,13,3,-1,0,0,0,0,6
1.5910118295691e+15,-10,-1,1,2,0,0,-1,-2
1.5910118295691e+15,0,-1,-1,-3,0,0,-4,-1
1.59101182957009e+15,-3,1,0,-2,0,0,3,9
1.59101182957009e+15,-5,-1,4,-1,-2,-2,-1,0
1.59101182959108e+15,3,-1,-1,-1,-1,-1,1,-5
1.59101182959108e+15,3,1,-1,0,-1,-1,-3,1
1.59101182959303e+15,-4,-3,-6,-3,-2,-2,2,-6
1.59101182959303e+15,0,-1,-1,-5,-3,-3,-4,10
1.59101182960505e+15,0,1,-1,-1,-1,-1,1,4
1.59101182960505e+15,-5,-2,-2,0,-2,-2,-1,-4
1.59101182961996e+15,3,-0,-8,-2,1,1,0,-3
1.59101182961996e+15,-3,-1,3,-1,0,0,-3,-2
1.59101182962893e+15,0,-1,-2,-2,-1,-1,-1,-7
1.59101182962893e+15,-4,1,3,-2,-1,-1,1,8
1.59101182963093e+15,-1,-1,1,-2,-1,-1,-2,-6
1.59101182963093e+15,-2,-2,-6,-2,0,0,0,-6
1.59101182965191e+15,-1,-1,1,-3,-1,-1,-2,-1
1.59101182965191e+15,0,-0,1,-2,0,0,0,-7
1.59101182965287e+15,-4,-2,-2,-5,-1,-1,-2,-1
1.59101182965287e+15,-7,-1,1,-1,0,0,-2,-5
1.59101182968191e+15,7,-1,-10,-4,0,0,-1,1
1.59101182968191e+15,-10,-1,1,0,0,0,-1,-4
1.5910118296828e+15,3,-1,-1,-1,-3,-3,-1,-1
1.5910118296828e+15,0,-1,-5,-3,-4,-4,1,0
1.59101182968882e+15,-4,-1,4,2,-4,-4,-1,-5
1.59101182968882e+15,-2,-2,-6,-1,-1,-1,-2,-1
1.59101182969078e+15,-4,-1,-1,1,-1,-1,-2,-3
1.59101182969078e+15,-6,-2,-2,-1,-1,-1,0,-3
1.59101182971202e+15,0,-1,-2,-1,0,0,-1,-4
1.59101182971202e+15,7,-0,-4,-2,-3,-3,-2,2
1.59101182971272e+15,0,2,13,0,-2,-2,-1,0
1.59101182971272e+15,1,-0,-1,1,0,0,-1,-1
1.59101182973271e+15,0,-1,-4,-1,-2,-2,-3,-2
1.59101182973271e+15,1,1,-2,-3,2,2,2,0
1.59101182974164e+15,-2,-1,-7,-1,-1,-1,1,0
1.59101182974164e+15,-1,2,0,2,0,0,1,-2
1.59101182974863e+15,-5,-0,4,0,-2,-2,1,2
1.59101182974863e+15,-1,-0,2,-1,0,0,1,0
1.59101182975567e+15,0,-3,-15,-2,-1,-1,-1,-8
1.59101182975567e+15,-2,1,3,0,-1,-1,-2,4
1.5910118297716e+15,-3,-1,-2,-2,-1,-1,-3,-1
1.5910118297716e+15,0,-2,-3,-4,-2,-2,-2,-4
1.59101182977355e+15,1,-0,5,-1,-2,-2,0,-1
1.59101182977355e+15,-1,-2,-3,0,-3,-3,-3,-3
1.59101182979349e+15,1,-0,-11,3,0,0,0,1
1.59101182979349e+15,-3,1,10,1,-2,-2,0,-2
1.59101182979549e+15,3,-0,-3,-4,-1,-1,1,5
1.59101182979549e+15,-6,-2,0,-2,-2,-2,-1,-6
1.59101182980846e+15,0,-0,5,-1,-3,-3,1,1
1.59101182980846e+15,0,-0,1,2,1,1,-3,-3
1.59101182981543e+15,-1,-2,-8,-2,-3,-3,-1,3
1.59101182981543e+15,0,-0,-2,-1,0,0,0,-1
1.5910118298314e+15,-1,-1,-4,-2,0,0,0,-1
1.5910118298314e+15,-1,1,-3,2,0,0,1,-1
1.59101182983339e+15,-3,-0,4,-1,-1,-1,-1,-2
1.59101182983339e+15,-2,-2,-2,-3,-1,-1,-3,-5
1.59101182985433e+15,-4,-1,6,-3,-2,-2,-4,-4
1.59101182985433e+15,-1,-2,-9,-3,-3,-3,-3,-1
1.59101182985533e+15,0,-1,4,-2,-1,-1,-1,-8
1.59101182985533e+15,1,-1,3,0,-2,-2,0,-9
1.59101182986829e+15,-14,-6,-3,-3,-1,-1,-5,-13
1.59101182986829e+15,-5,-2,-11,-2,1,1,-3,1
1.59101182987538e+15,-6,-5,-4,-2,-6,-6,-8,-11
1.59101182987538e+15,0,-0,-1,1,0,0,-1,-2
1.59101182989237e+15,4,-0,-6,-3,0,0,-1,0
1.59101182989237e+15,-3,-2,1,0,-2,-2,-2,-7
1.59101182989422e+15,-12,-0,5,0,2,2,0,2
1.59101182989422e+15,-3,-3,-8,-3,-3,-3,-3,1
1.59101182991432e+15,2,-0,2,-1,-1,-1,-1,0
1.59101182991432e+15,2,5,7,0,1,1,3,19
1.59101182991529e+15,2,-0,-4,0,-1,-1,0,-1
1.59101182991529e+15,0,-0,4,0,-3,-3,0,-1
1.59101182992828e+15,-3,-1,-3,0,-1,-1,-1,-1
1.59101182992828e+15,2,-0,4,-4,-1,-1,0,-4
1.59101182993512e+15,1,-0,-4,0,-1,-1,1,0
1.59101182993512e+15,-8,-1,-5,-1,2,2,-2,0
1.5910118299511e+15,1,-0,-6,0,0,0,0,-1
1.5910118299511e+15,-2,-2,2,-1,-2,-2,-5,-11
1.59101182995307e+15,5,3,1,1,1,1,-1,7
1.59101182995307e+15,9,-0,-1,-2,-3,-3,-2,2
1.59101182997401e+15,-9,-5,-6,-2,-3,-3,-3,-11
1.59101182997401e+15,-1,-0,2,-2,-2,-2,0,-1
1.59101182998199e+15,4,1,-4,-2,2,2,1,-5
1.59101182998199e+15,6,1,-1,1,-1,-1,-6,7
1.59101182998803e+15,-1,-2,-6,-1,0,0,-3,-4
1.59101182998803e+15,6,2,8,0,-2,-2,-5,6
1.59101182999516e+15,-7,-2,1,0,-1,-1,0,-10
1.59101182999516e+15,-7,-1,-4,0,0,0,5,-3
1.59101183001191e+15,2,1,2,0,-1,-1,-1,-3
1.59101183001191e+15,3,1,-7,-1,-1,-1,4,6
1.59101183001291e+15,1,-0,-2,-1,-3,-3,2,4
1.59101183001291e+15,0,-0,-1,0,0,0,0,-3
1.5910118300339e+15,4,2,5,-2,-1,-1,0,3
1.5910118300339e+15,-1,-1,-5,1,-3,-3,1,0
1.59101183003585e+15,2,-0,5,-1,-3,-3,-5,2
1.59101183003585e+15,-7,-3,-6,-4,0,0,-2,1
1.59101183004885e+15,-3,-1,-2,1,-2,-2,0,-2
1.59101183004885e+15,-15,-3,2,0,0,0,-4,-7
1.59101183006282e+15,1,-1,-3,1,1,1,-3,-8
1.59101183006282e+15,-10,-4,-5,-2,-2,-2,-1,-6
1.5910118300718e+15,-9,1,5,2,2,2,6,1
1.5910118300718e+15,4,-0,-7,-1,1,1,-3,2
1.59101183007275e+15,-8,-1,4,3,-3,-3,0,-3
1.59101183007275e+15,4,2,7,2,-1,-1,-2,-3
1.59101183009374e+15,-3,-0,-1,-2,-1,-1,1,4
1.59101183009374e+15,-1,-1,-2,0,0,0,-2,-8
1.59101183009569e+15,-6,-3,-2,-4,-2,-2,-5,-6
1.59101183009569e+15,3,-1,-6,-7,-1,-1,2,0
1.59101183010865e+15,5,3,3,-3,-5,-5,2,13
1.59101183010865e+15,-3,-2,2,-3,-4,-4,-1,-5
1.59101183012267e+15,4,1,4,1,-2,-2,-3,4
1.59101183012267e+15,-2,-2,-9,-1,-1,-1,-2,-2
1.5910118301316e+15,4,-0,2,-3,0,0,-4,-3
1.5910118301316e+15,2,-0,-2,-2,0,0,0,-3
1.59101183013359e+15,0,-0,-5,1,-1,-1,2,1
1.59101183013359e+15,-3,-1,-1,1,0,0,0,-1
1.59101183015457e+15,2,-0,-2,-2,-4,-4,-3,5
1.59101183015457e+15,-6,-2,-1,-1,-4,-4,-1,1
1.59101183015553e+15,-5,-1,0,3,2,2,0,-12
1.59101183015553e+15,-2,1,3,-1,-3,-3,1,7
1.59101183017647e+15,0,1,-2,-2,2,2,0,4
1.59101183017647e+15,2,1,1,0,2,2,-1,1
1.59101183017847e+15,-4,-6,-4,-6,-6,-6,-5,-18
1.59101183017847e+15,2,-0,-4,-2,-3,-3,-2,3
1.59101183019152e+15,-1,-1,-4,2,-1,-1,-4,-3
1.59101183019152e+15,-3,-1,0,0,-3,-3,-2,-2
1.59101183019345e+15,2,4,10,-1,0,0,0,11
1.59101183019345e+15,-1,-1,2,-2,-2,-2,-2,-3
1.59101183021442e+15,-2,-2,-5,-1,-1,-1,-2,-3
1.59101183021442e+15,2,-3,-13,-6,1,1,-2,-1
1.59101183021537e+15,4,-0,-1,-5,0,0,-2,0
1.59101183021537e+15,-1,-1,2,-2,-2,-2,-2,-2
1.59101183022739e+15,0,1,2,-1,2,2,0,-3
1.59101183022739e+15,-9,-3,3,0,-4,-4,1,-12
1.59101183023631e+15,15,5,-1,2,0,0,2,14
1.59101183023631e+15,-8,-1,0,2,0,0,0,-3
1.5910118302523e+15,1,-1,1,-1,-2,-2,-3,-7
1.5910118302523e+15,-6,-2,-6,-1,-3,-3,0,-3
1.59101183025731e+15,-5,-1,-4,0,-4,-4,-1,2
1.59101183025731e+15,4,2,6,-1,1,1,-2,2
1.59101183027425e+15,3,1,-1,-2,-2,-2,1,2
1.59101183027425e+15,8,-0,-5,-3,-2,-2,-1,5
1.59101183027524e+15,-8,-0,1,-2,1,1,1,2
1.59101183027524e+15,-5,-3,-1,-2,-2,-2,-3,-4
1.59101183028727e+15,-3,-1,-2,-3,-1,-1,2,-1
1.59101183028727e+15,-1,-1,0,0,0,0,-3,-5
1.59101183029623e+15,2,2,-2,-3,-2,-2,-2,16
1.59101183029623e+15,10,1,5,2,2,2,-2,-11
1.59101183031125e+15,-4,-3,-8,-4,-3,-3,-6,5
1.59101183031125e+15,1,-1,-1,0,1,1,-4,-5
1.59101183031319e+15,2,-0,-2,-1,1,1,-2,1
1.59101183031319e+15,-6,-2,2,0,-2,-2,-1,-6
1.59101183034115e+15,2,-1,-4,-2,-3,-3,-2,0
1.59101183034115e+15,1,2,5,2,-2,-2,2,0
1.59101183034311e+15,-5,-1,2,0,-1,-1,1,-6
1.59101183034311e+15,-2,-1,-9,-2,-1,-1,-1,2
1.59101183034813e+15,-3,-0,5,-1,-1,-1,0,-6
1.59101183034813e+15,-1,-0,1,-3,0,0,0,4
1.59101183035708e+15,-4,-0,2,2,2,2,-2,-3
1.59101183035708e+15,1,1,0,-1,-1,-1,1,4
1.59101183037109e+15,0,1,-4,2,1,1,1,4
1.59101183037109e+15,-1,-1,-2,-2,0,0,2,-1
1.59101183037303e+15,0,-3,-4,-1,-2,-2,-3,-12
1.59101183037303e+15,-4,-0,6,1,-2,-2,0,0
1.59101183039404e+15,-5,-2,-6,-4,-4,-4,-3,7
1.59101183039404e+15,15,2,0,-2,1,1,-1,0
1.59101183040015e+15,-4,-1,2,0,-3,-3,0,-2
1.59101183040015e+15,-1,-0,6,0,0,0,-3,-5
1.59101183040822e+15,1,-2,-9,-3,0,0,-1,-4
1.59101183040822e+15,-7,-2,-5,-2,-1,-1,-2,-1
1.59101183041708e+15,-1,-1,-3,-4,-1,-1,3,2
1.59101183041708e+15,0,-1,-3,-2,-3,-3,0,-3
1.59101183043207e+15,-5,-0,3,2,1,1,1,-6
1.59101183043207e+15,-5,1,6,1,-1,-1,0,1
1.59101183043303e+15,-1,-1,-5,-2,0,0,1,-3
1.59101183043303e+15,1,-0,-2,-3,-1,-1,0,0
1.59101183045421e+15,-4,-2,3,-4,0,0,-3,-8
1.59101183045421e+15,-4,-2,-4,-2,-1,-1,-1,-1
1.59101183045597e+15,3,2,-1,-2,-3,-3,-2,10
1.59101183045597e+15,-2,-2,-7,-2,-2,-2,-3,2
1.59101183046794e+15,-2,1,6,3,2,2,-1,-8
1.59101183046794e+15,0,2,2,0,0,0,-3,7
1.59101183047691e+15,3,-3,-3,-2,-1,-1,-3,-15
1.59101183047691e+15,-4,-1,-1,2,-3,-3,-2,-2
1.59101183049216e+15,7,3,3,1,0,0,4,3
1.59101183049216e+15,-1,-1,-1,1,-2,-2,-1,-5
1.59101183049287e+15,-2,-1,-16,-2,0,0,0,5
1.59101183049287e+15,-5,-0,9,-1,0,0,0,-1
1.59101183051381e+15,-3,-1,3,0,-2,-2,-1,-6
1.59101183051381e+15,-1,-0,-1,-1,-2,-2,0,2
1.5910118305158e+15,1,1,4,1,-1,-1,-1,3
1.5910118305158e+15,3,-0,-2,-1,-1,-1,1,-8
1.59101183052781e+15,-2,1,5,-1,-4,-4,-1,7
1.59101183052781e+15,-7,-5,-6,-4,-1,-1,-2,-11
1.59101183053675e+15,-9,-1,4,-1,1,1,-2,-6
1.59101183053675e+15,-1,-1,1,-5,-1,-1,-1,-8
1.59101183055175e+15,2,-1,-7,-3,-1,-1,-2,2
1.59101183055175e+15,-3,1,6,0,1,1,-2,-1
1.59101183055271e+15,0,-2,-10,-2,-2,-2,1,-6
1.59101183055271e+15,-1,-4,-10,-3,-1,-1,-5,-3
1.59101183057383e+15,-3,-1,-6,1,3,3,-4,-3
1.59101183057383e+15,1,-0,4,1,-1,-1,-4,-2
1.59101183057565e+15,-8,-2,2,1,-4,-4,-4,-4
1.59101183057565e+15,4,1,-7,-5,0,0,-1,13
1.59101183058784e+15,-3,-3,-2,1,-2,-2,-5,-18
1.59101183058784e+15,-1,-1,-3,-2,-1,-1,0,3
1.59101183059659e+15,-2,-0,-2,-2,2,2,-1,0
1.59101183059659e+15,-2,-1,-4,0,-1,-1,2,-2
1.59101183061255e+15,6,4,4,-2,-4,-4,0,18
1.59101183061255e+15,-2,2,0,0,1,1,5,5
1.59101183061454e+15,-8,-1,-1,0,-5,-5,2,3
1.59101183061454e+15,-4,1,-1,3,-1,-1,3,3
1.59101183063449e+15,1,-0,-2,-3,-1,-1,-3,3
1.59101183063449e+15,6,1,-2,-1,-3,-3,-3,7
1.59101183063649e+15,9,-0,-1,-3,-2,-2,-4,3
1.59101183063649e+15,0,-1,-5,0,-1,-1,-2,-1
1.59101183065643e+15,-3,-0,0,-2,0,0,1,-4
1.59101183065643e+15,-2,-1,-3,-1,1,1,-3,-3
1.59101183065842e+15,-7,-1,3,-1,-1,-1,-2,-2
1.59101183065842e+15,1,-2,-8,-3,-2,-2,-1,-3
1.5910118306725e+15,-13,-3,1,-1,-3,-3,0,-5
1.5910118306725e+15,0,-2,-6,-2,-3,-3,1,-4
1.59101183067751e+15,-2,-1,-5,0,-1,-1,0,-2
1.59101183067751e+15,-2,-1,2,-2,-1,-1,-4,-4
1.59101183069446e+15,-1,-2,-4,-3,-4,-4,-1,-1
1.59101183069446e+15,1,1,3,0,-2,-2,-1,-2
1.59101183069532e+15,-3,-1,1,-3,-3,-3,0,-4
1.59101183069532e+15,4,6,-1,1,2,2,5,29
1.59101183071667e+15,-12,-7,1,-1,-2,-2,-7,-32
1.59101183071667e+15,2,-1,-9,1,1,1,-4,-1
1.59101183071761e+15,11,5,16,0,0,0,1,13
1.59101183071761e+15,-3,-3,-6,-3,0,0,-3,-7
1.59101183073157e+15,4,3,1,1,1,1,4,5
1.59101183073157e+15,-6,-2,-1,-1,0,0,-3,-1
1.59101183073361e+15,-1,-3,-10,-2,2,2,-2,-5
1.59101183073361e+15,7,1,8,0,-1,-1,-2,-5
1.59101183075351e+15,0,-0,-1,-2,2,2,-2,7
1.59101183075351e+15,-2,-3,-3,-3,-2,-2,-5,-5
1.59101183075551e+15,-2,-1,-4,-3,-1,-1,-3,2
1.59101183075551e+15,-5,-1,3,-2,-1,-1,-4,-2
1.59101183077651e+15,1,-2,-10,-2,-2,-2,-5,-2
1.59101183077651e+15,-1,1,1,2,2,2,0,-4
1.59101183077845e+15,-1,-1,-1,-1,1,1,0,-5
1.59101183077845e+15,-5,-4,-3,0,-1,-1,0,-16
1.59101183079049e+15,2,2,-7,-1,-1,-1,4,13
1.59101183079049e+15,1,3,11,1,0,0,1,6
1.59101183079747e+15,-1,-2,-6,-2,-2,-2,-3,-1
1.59101183079747e+15,-5,-1,3,4,-1,-1,-3,-8
1.59101183081378e+15,1,1,-2,-1,0,0,1,2
1.59101183081378e+15,-1,-0,3,-1,-1,-1,3,-4
1.59101183081577e+15,-3,-0,-3,-3,-1,-1,3,-4
1.59101183081577e+15,8,3,1,-2,-2,-2,3,11
1.59101183083672e+15,0,-1,-2,1,-3,-3,-3,-6
1.59101183083672e+15,-7,-1,-3,0,-2,-2,-1,2
1.59101183083771e+15,-8,-1,5,1,-2,-2,-3,-4
1.59101183083771e+15,-3,-1,2,-2,0,0,-1,-3
1.59101183085071e+15,1,-0,-3,-3,0,0,0,-1
1.59101183085071e+15,-13,-6,-7,-7,-1,-1,-3,-8
1.5910118308577e+15,5,1,-2,-1,-1,-1,-2,7
1.5910118308577e+15,-5,-1,-2,-2,-2,-2,-1,-3
1.59101183087373e+15,-2,-0,1,-1,-2,-2,-1,1
1.59101183087373e+15,-3,-2,-4,-2,-1,-1,0,-3
1.59101183087561e+15,0,-1,3,0,-2,-2,-3,0
1.59101183087561e+15,4,3,0,0,0,0,-1,8
1.59101183089668e+15,-4,-1,2,-2,-2,-2,1,-1
1.59101183089668e+15,-1,-1,2,0,0,0,-4,-5
1.59101183089855e+15,-2,-1,-5,1,0,0,-1,5
1.59101183089855e+15,-1,-2,-4,-2,-3,-3,-1,-5
1.59101183091064e+15,0,-0,3,2,-2,-2,-1,1
1.59101183091064e+15,4,1,0,2,-3,-3,-3,3
1.59101183092561e+15,-3,-2,-3,0,0,0,-4,-6
1.59101183092561e+15,-2,-0,3,-2,0,0,0,0
1.59101183093357e+15,0,1,1,-1,1,1,1,1
1.59101183093357e+15,9,1,-1,1,-2,-2,-3,2
1.59101183093545e+15,-4,-2,-1,-2,-2,-2,-1,-5
1.59101183093545e+15,-2,-2,-3,-4,-2,-2,-2,-2
1.59101183095644e+15,1,-1,-2,-2,-1,-1,-2,-2
1.59101183095644e+15,-4,-1,-3,-1,-1,-1,-1,2
1.59101183095839e+15,1,-0,0,-3,0,0,-1,-2
1.59101183095839e+15,-4,-1,1,0,0,0,-1,-2
1.59101183097258e+15,1,-0,-1,-1,-3,-3,-1,1
1.59101183097258e+15,-2,-1,-2,-1,-3,-3,-1,0
1.59101183097934e+15,2,-0,-4,-2,-3,-3,2,0
1.59101183097934e+15,-3,-2,-5,-3,-1,-1,1,-1
1.59101183099334e+15,-4,-0,-2,1,2,2,0,-4
1.59101183099334e+15,1,-0,2,0,-1,-1,-2,-2
1.59101183100127e+15,-2,-1,-2,-2,-2,-2,-1,0
1.59101183100127e+15,-2,-1,1,0,-1,-1,-2,-3
1.59101183101623e+15,2,-2,-3,-3,-4,-4,-6,1
1.59101183101623e+15,0,1,-6,-3,-1,-1,0,8
1.59101183101823e+15,-1,-0,4,0,-1,-1,-2,1
1.59101183101823e+15,3,-2,-5,-1,-3,-3,-4,-4
1.59101183103119e+15,-1,-2,-2,-1,-3,-3,-3,-9
1.59101183103119e+15,2,-1,-1,-3,-2,-2,-1,-3
1.59101183103828e+15,2,2,3,1,2,2,4,1
1.59101183103828e+15,-3,-0,-4,-2,-1,-1,2,4
1.59101183105413e+15,-10,1,8,2,1,1,2,0
1.59101183105413e+15,-4,-2,-8,-3,0,0,-1,-3
1.59101183105513e+15,-5,-1,-2,1,0,0,-2,-4
1.59101183105513e+15,0,-0,1,-1,1,1,-1,-2
1.59101183107707e+15,-1,1,1,-1,0,0,0,3
1.59101183107707e+15,-4,-1,-4,-2,-3,-3,1,0
1.59101183108208e+15,-1,-1,1,-1,-3,-3,-3,-3
1.59101183108208e+15,5,-1,-2,-1,0,0,-1,-6
1.59101183109003e+15,5,-1,-3,-4,-3,-3,-1,-2
1.59101183109003e+15,0,-1,-3,0,-1,-1,-1,-5
1.59101183109901e+15,-2,-1,2,-1,0,0,-3,-7
1.59101183109901e+15,-3,-0,3,1,-1,-1,-2,-4
1.59101183111412e+15,2,2,2,1,-1,-1,0,3
1.59101183111412e+15,-1,-0,2,-1,0,0,1,-5
1.59101183111608e+15,0,-2,-5,-5,-1,-1,-1,-1
1.59101183111608e+15,-2,-3,-5,-4,-3,-3,-2,-3
1.59101183114404e+15,-2,1,-4,1,-1,-1,2,3
1.59101183114404e+15,6,1,-2,-2,-2,-2,0,5
1.59101183114588e+15,1,1,-2,0,-3,-3,2,4
1.59101183114588e+15,-1,-0,2,-2,-2,-2,-1,0
1.591011831159e+15,-5,-3,-4,-7,-2,-2,0,-5
1.591011831159e+15,4,-0,4,0,-1,-1,-5,0
1.59101183117486e+15,2,-0,-5,-4,-1,-1,2,1
1.59101183117486e+15,7,3,7,5,1,1,0,-7
1.59101183117486e+15,-5,-0,-2,1,2,2,-2,2
1.59101183117486e+15,-1,-0,1,1,1,1,-3,0
1.59101183117985e+15,1,-3,-1,0,-1,-1,-5,-13
1.59101183117985e+15,-6,-1,-5,-2,-2,-2,-1,7
1.5910118311969e+15,1,-0,-4,0,0,0,-3,0
1.5910118311969e+15,-1,-0,4,0,0,0,-1,-6
1.59101183119775e+15,-14,-4,2,-1,-4,-4,-3,-8
1.59101183119775e+15,-4,-2,-4,-1,-1,-1,0,-2
1.59101183120986e+15,1,1,2,1,-5,-5,1,1
1.59101183120986e+15,-3,-2,-5,0,0,0,0,-11
1.59101183121869e+15,0,-0,-2,-2,-1,-1,-1,6
1.59101183121869e+15,1,1,2,1,1,1,-1,2
1.59101183123372e+15,-3,-1,-4,1,1,1,-1,-5
1.59101183123372e+15,-4,-1,-2,-1,-2,-2,2,-4
1.59101183123565e+15,1,-0,-2,-4,-1,-1,0,0
1.59101183123565e+15,-8,-3,-2,-4,-2,-2,-3,-4
1.59101183125659e+15,11,1,0,-3,-3,-3,-5,6
1.59101183125659e+15,-3,1,4,0,-1,-1,-1,1
1.59101183126257e+15,-4,-1,-1,-1,1,1,-1,1
1.59101183126257e+15,4,1,-7,-2,-1,-1,0,9
1.59101183127059e+15,-4,-4,-5,-4,-1,-1,0,-21
1.59101183127059e+15,1,2,0,1,-2,-2,3,3
1.59101183128552e+15,-2,-1,-5,-1,0,0,1,-4
1.59101183128552e+15,-2,-1,0,1,0,0,1,-10
1.59101183129353e+15,2,1,9,1,0,0,-3,1
1.59101183129353e+15,-8,-3,-14,-2,-1,-1,0,4
1.59101183129549e+15,2,2,11,1,0,0,-2,-3
1.59101183129549e+15,-1,1,-2,1,1,1,0,1
1.59101183131644e+15,2,-0,1,-1,0,0,-2,-1
1.59101183131644e+15,-1,-2,0,-2,-1,-1,-5,-4
1.59101183131843e+15,3,-1,-5,-1,-2,-2,-1,0
1.59101183131843e+15,-5,-3,0,-3,-3,-3,0,-6
1.5910118313304e+15,-3,-0,2,-2,-1,-1,-1,0
1.5910118313304e+15,-2,-0,-1,-2,0,0,1,1
1.59101183134646e+15,-3,-1,-5,-2,-1,-1,-3,1
1.59101183134646e+15,3,-2,-1,-5,-2,-2,-2,-6
1.59101183135433e+15,-5,-2,-8,-2,-2,-2,2,4
1.59101183135433e+15,8,-0,5,-9,-3,-3,-3,-4
1.59101183135533e+15,0,-1,-3,0,0,0,-1,-5
1.59101183135533e+15,1,1,3,-1,0,0,-1,1
1.59101183137627e+15,-2,-3,-3,1,-1,-1,-3,-18
1.59101183137627e+15,-1,3,-5,1,1,1,2,17
1.59101183138426e+15,-4,-3,3,1,-1,-1,-3,-20
1.59101183138426e+15,-7,1,1,1,-1,-1,0,7
1.5910118313994e+15,1,-0,-7,0,1,1,-1,-1
1.5910118313994e+15,-3,-2,0,0,-3,-3,-2,-4
1.59101183140021e+15,-1,-1,-5,-1,-1,-1,-1,3
1.59101183140021e+15,2,-0,-1,0,0,0,-3,-1
1.59101183141444e+15,-1,1,2,0,0,0,0,3
1.59101183141444e+15,-9,-7,-3,-3,-5,-5,-3,-18
1.59101183141517e+15,2,3,-2,0,-1,-1,0,18
1.59101183141517e+15,0,-1,-2,-1,-1,-1,0,-3
1.59101183143714e+15,-3,1,0,-3,1,1,0,3
1.59101183143714e+15,0,-1,0,-1,0,0,-2,-6
1.59101183144409e+15,-12,-4,-4,-5,-3,-3,-2,-3
1.59101183144409e+15,0,-2,-5,-1,-3,-3,-1,-6
1.59101183145014e+15,1,-1,-2,-3,-3,-3,0,0
1.59101183145014e+15,-2,-0,-4,0,0,0,1,2
1.59101183145905e+15,-4,-0,0,1,0,0,1,-1
1.59101183145905e+15,-3,-0,0,-1,-1,-1,-1,3
1.59101183147408e+15,-3,-0,3,-1,-2,-2,-1,0
1.59101183147408e+15,1,-1,-4,-1,0,0,-3,-1
1.591011831476e+15,3,-2,-10,-3,-2,-2,-3,3
1.591011831476e+15,-1,-0,8,0,-2,-2,-3,-1
1.59101183149702e+15,0,1,4,4,-2,-2,-2,-1
1.59101183149702e+15,-1,-0,4,-2,-1,-1,-1,-2
1.59101183149894e+15,2,-0,0,1,0,0,0,-1
1.59101183149894e+15,-2,-1,-6,-2,0,0,1,-2
1.59101183150998e+15,-2,-1,-2,-1,-1,-1,-2,0
1.59101183150998e+15,2,-0,-3,0,1,1,0,0
1.59101183151889e+15,1,2,9,0,-2,-2,-1,-1
1.59101183151889e+15,-2,-3,-14,-2,-1,-1,-3,0
1.5910118315339e+15,1,2,15,0,-3,-3,0,1
1.5910118315339e+15,1,-1,-10,-5,-1,-1,-1,0
1.59101183153585e+15,-1,1,14,-4,0,0,1,-3
1.59101183153585e+15,-3,-4,-18,-5,1,1,0,-3
1.59101183156495e+15,1,1,-4,1,3,3,0,-1
1.59101183156495e+15,0,-0,1,0,-1,-1,-1,-1
1.59101183156576e+15,-7,1,11,13,-3,-3,-1,-1
1.59101183156576e+15,1,-1,-1,-6,-2,-2,-2,1
1.59101183157873e+15,-1,-3,-9,-9,0,0,0,0
1.59101183157873e+15,-1,-2,-10,0,-1,-1,-2,1
1.59101183158072e+15,4,3,16,7,-5,-5,-3,2
1.59101183158072e+15,-3,-5,-32,-6,3,3,-1,-4
1.59101183159393e+15,-9,-6,-14,-9,-4,-4,-3,-6
1.59101183159393e+15,-6,2,27,-7,-3,-3,-1,-2
1.59101183159568e+15,-3,-6,-14,-1,-2,-2,-4,-5
1.59101183159568e+15,4,1,-7,2,-2,-2,-1,2
1.59101183161663e+15,3,6,17,7,2,2,2,3
1.59101183161663e+15,-2,-8,-48,-7,-3,-3,0,0
1.59101183161763e+15,1,-7,-26,-18,-3,-3,-1,-1
1.59101183161763e+15,-4,-0,12,6,-6,-6,-1,-3
1.59101183163857e+15,-1,-3,-13,8,-2,-2,-6,-3
1.59101183163857e+15,4,3,20,-7,4,4,1,0
1.59101183164655e+15,-6,4,15,10,3,3,-1,-3
1.59101183164655e+15,3,1,9,-9,-2,-2,0,-2
1.59101183165356e+15,1,-4,-25,6,-6,-6,-1,-1
1.59101183165356e+15,-6,-2,0,-3,2,2,-4,-4
1.59101183166059e+15,0,4,23,-1,-1,-1,3,-2
1.59101183166059e+15,2,6,15,10,2,2,1,2
1.59101183167654e+15,0,-0,3,-6,-2,-2,-1,-2
1.59101183167654e+15,2,-0,-10,7,-2,-2,0,1
1.59101183168256e+15,2,-3,-22,-10,0,0,-1,0
1.59101183168256e+15,-4,-2,7,-2,-5,-5,-3,-1
1.59101183169945e+15,-2,1,-4,5,-2,-2,1,1
1.59101183169945e+15,-3,-0,14,-7,-1,-1,-2,-2
1.5910118317004e+15,-1,-0,-11,12,0,0,-1,-1
1.5910118317004e+15,-3,-6,-19,-11,-5,-5,-3,-2
1.59101183171337e+15,-2,-2,-1,-21,1,1,-2,0
1.59101183171337e+15,-1,4,4,21,-1,-1,2,0
1.59101183172042e+15,2,-3,-10,-11,-3,-3,-1,0
1.59101183172042e+15,2,4,16,5,3,3,0,1
1.59101183173631e+15,-1,-0,6,1,0,0,1,-2
1.59101183173631e+15,-2,2,12,7,-2,-2,-2,-2
1.5910118317383e+15,-4,-4,-13,-11,1,1,-1,-2
1.5910118317383e+15,-2,-2,-3,-3,-1,-1,-2,-4
1.59101183175925e+15,-2,-1,1,1,-2,-2,-1,0
1.59101183175925e+15,2,-2,-6,1,-3,-3,0,-1
1.59101183176024e+15,3,-3,-11,-22,1,1,0,2
1.59101183176024e+15,0,-0,1,0,-2,-2,-1,0
1.59101183177323e+15,-2,-1,-3,1,-2,-2,-2,-2
1.59101183177323e+15,-2,-1,-1,1,-2,-2,1,-3
1.59101183178019e+15,0,1,-2,0,0,0,1,0
1.59101183178019e+15,-2,-0,7,-8,0,0,-1,-1
1.59101183179714e+15,3,-0,-7,0,1,1,-1,0
1.59101183179714e+15,10,1,8,-8,-3,-3,0,1
1.59101183179814e+15,-12,-3,-14,3,2,2,-2,-9
1.59101183179814e+15,-2,-2,-1,2,-4,-4,-2,-3
1.59101183181912e+15,2,2,5,11,0,0,-4,0
1.59101183181912e+15,1,-5,-8,-26,-3,-3,-4,1
1.59101183182011e+15,0,2,4,8,-2,-2,0,2
1.59101183182011e+15,1,3,5,9,1,1,2,1
1.59101183183305e+15,0,-2,-8,-7,-3,-3,0,-1
1.59101183183305e+15,-2,-1,-7,5,0,0,-1,-2
1.59101183184203e+15,6,5,18,2,0,0,-1,1
1.59101183184203e+15,-4,-4,-8,-6,-2,-2,-5,-2
1.59101183185698e+15,-8,-4,-10,-6,-2,-2,-3,-1
1.59101183185698e+15,-3,3,26,1,-2,-2,-1,-3
1.59101183185799e+15,2,-1,-7,-4,-2,-2,-1,-1
1.59101183185799e+15,5,4,12,13,-1,-1,0,1
1.59101183187897e+15,-3,-5,-16,-16,-1,-1,0,-1
1.59101183187897e+15,12,2,-4,13,-3,-3,-2,-4
1.59101183188092e+15,-11,-4,-10,-7,-3,-3,-2,-2
1.59101183188092e+15,0,-1,2,-9,-2,-2,1,-2
1.59101183189289e+15,0,2,7,2,0,0,-1,-1
1.59101183189289e+15,-1,-3,-16,-7,0,0,0,2
1.59101183190187e+15,3,2,9,4,-4,-4,-1,1
1.59101183190187e+15,-3,-1,-8,5,-2,-2,0,0
1.59101183191705e+15,1,2,26,-15,0,0,-1,0
1.59101183191705e+15,-15,-3,-7,1,1,1,-3,-2
1.59101183191782e+15,7,6,15,10,1,1,1,2
1.59101183191782e+15,-2,-4,-5,-11,-2,-2,-3,-1
1.59101183193898e+15,-3,3,-9,24,0,0,1,-2
1.59101183193898e+15,-2,-3,-5,-8,-1,-1,1,-1
1.59101183194076e+15,-3,-3,-4,-8,-1,-1,-2,-3
1.59101183194076e+15,2,8,37,19,0,0,0,-2
1.59101183195273e+15,-4,-3,2,-15,-2,-2,0,-3
1.59101183195273e+15,-5,-5,-11,-12,-3,-3,-2,0
1.59101183196171e+15,1,-2,-10,-3,-3,-3,0,2
1.59101183196171e+15,-3,-3,-15,-8,-2,-2,-3,-2
1.59101183197682e+15,2,4,8,18,-2,-2,-1,0
1.59101183197682e+15,-5,-5,-18,-9,-1,-1,0,-4
1.59101183197767e+15,1,-0,3,-4,1,1,-2,-1
1.59101183197767e+15,-3,3,9,8,0,0,-2,1
1.59101183199985e+15,3,-2,-9,-6,-1,-1,-1,0
1.59101183199985e+15,0,-4,-4,-16,-1,-1,0,0
1.5910118320016e+15,3,2,0,9,1,1,1,-2
1.5910118320016e+15,-1,1,-15,3,3,3,3,0
1.59101183201257e+15,-2,1,1,3,-2,-2,-1,0
1.59101183201257e+15,0,1,-2,11,-2,-2,-4,0
1.59101183202155e+15,-1,-6,-2,-29,0,0,-3,-1
1.59101183202155e+15,-3,-0,-1,7,-2,-2,-2,0
1.5910118320365e+15,-4,-4,-5,-7,-4,-4,-2,-2
1.5910118320365e+15,-9,-0,4,4,1,1,-2,-1
1.5910118320385e+15,-1,-0,-3,2,-2,-2,-3,0
1.5910118320385e+15,0,-2,-6,-7,-1,-1,0,-3
1.59101183205945e+15,-3,-1,-3,2,-2,-2,0,-3
1.59101183205945e+15,-4,1,5,2,0,0,1,-2
1.59101183206044e+15,-2,-3,-10,-8,1,1,-2,-1
1.59101183206044e+15,-3,-2,-14,-1,-2,-2,1,-1
1.59101183207241e+15,2,6,34,13,-1,-1,-3,-1
1.59101183207241e+15,-1,-2,-2,-12,1,1,-2,-1
1.59101183208146e+15,0,-1,-13,2,-3,-3,1,-1
1.59101183208146e+15,1,-0,17,-1,-5,-5,-4,0
1.59101183209664e+15,-1,-1,-3,-3,-1,-1,-1,0
1.59101183209664e+15,0,2,2,3,0,0,1,0
1.59101183209834e+15,-1,-2,-14,-3,-1,-1,0,-3
1.59101183209834e+15,-5,-2,1,-4,-1,-1,-3,-3
1.59101183211928e+15,-2,-1,-4,-1,-1,-1,-1,-1
1.59101183211928e+15,5,2,9,4,-3,-3,-3,1
1.5910118321204e+15,-14,-1,0,7,2,2,-1,-3
1.5910118321204e+15,0,-3,-13,-5,1,1,0,-2
1.59101183213225e+15,-2,-2,-7,-6,1,1,-2,-3
1.59101183213225e+15,-1,-0,-2,-2,0,0,1,-3
1.59101183214125e+15,-3,-0,-1,12,-4,-4,0,0
1.59101183214125e+15,-4,-3,-2,-15,-1,-1,0,-2
1.5910118321645e+15,-5,-3,-3,-11,-1,-1,-2,1
1.5910118321645e+15,0,-0,-1,7,-4,-4,-1,0
1.59101183216618e+15,-1,-1,-2,1,-2,-2,-2,-2
1.59101183216618e+15,4,2,4,0,1,1,-2,0
1.59101183217912e+15,3,-6,-41,-6,-2,-2,-2,-1
1.59101183217912e+15,-2,8,44,13,2,2,-3,-1
1.59101183218115e+15,0,1,9,-7,0,0,1,-1
1.59101183218115e+15,1,-0,-6,4,-3,-3,1,1
1.59101183220109e+15,-3,-0,1,0,1,1,1,-1
1.59101183220109e+15,-3,-5,-22,-14,-2,-2,2,0
1.59101183220306e+15,1,3,5,9,0,0,-1,0
1.59101183220306e+15,-1,-2,-6,-5,0,0,-2,2
1.59101183221702e+15,1,-0,8,-1,-4,-4,0,-1
1.59101183221702e+15,1,2,5,5,-1,-1,-1,-3
1.59101183221802e+15,4,-1,-3,-7,-1,-1,-3,-1
1.59101183221802e+15,-4,-6,-36,-4,1,1,-3,-3
1.59101183223901e+15,-3,9,56,9,1,1,-1,-2
1.59101183223901e+15,-6,-4,-8,-9,-2,-2,-1,-3
1.5910118322451e+15,2,2,10,4,0,0,0,-1
1.5910118322451e+15,-1,-1,-2,-3,-1,-1,-1,-1
1.59101183225308e+15,-2,-4,-18,-4,-2,-2,-1,-2
1.59101183225308e+15,1,-1,-1,4,-2,-2,0,-4
1.59101183226206e+15,-1,-0,1,1,0,0,1,-2
1.59101183226206e+15,-2,-2,0,-8,-2,-2,-1,-1
1.59101183227707e+15,0,-3,-10,-6,1,1,-2,-2
1.59101183227707e+15,-1,-0,-3,0,1,1,-3,0
1.59101183227901e+15,1,-2,-8,-8,-2,-2,-3,2
1.59101183227901e+15,2,4,18,9,-2,-2,-3,1
1.591011832299e+15,-3,-4,-8,-8,-3,-3,-1,1
1.591011832299e+15,-7,-0,-6,7,-1,-1,-1,0
1.59101183230095e+15,-2,-2,1,-6,-3,-3,-2,-3
1.59101183230095e+15,-5,-1,3,-1,-1,-1,0,-3
1.59101183231296e+15,0,2,12,-1,0,0,-1,-5
1.59101183231296e+15,1,-6,-39,-7,0,0,-1,-1
1.5910118323219e+15,-2,4,24,4,1,1,-3,-2
1.5910118323219e+15,2,2,10,4,-1,-1,-2,-1
1.59101183234384e+15,-3,-3,-9,-5,-1,-1,-3,-3
1.59101183234384e+15,1,2,5,8,-1,-1,-1,2
1.59101183234583e+15,-1,-3,-19,-3,-1,-1,-1,-2
1.59101183234583e+15,1,-2,-6,-7,-2,-2,0,2
1.59101183235984e+15,1,2,2,8,-1,-1,1,0
1.59101183235984e+15,1,-2,-9,-4,-1,-1,-3,0
1.59101183236079e+15,2,-0,-3,2,-2,-2,-1,0
1.59101183236079e+15,3,3,9,2,0,0,1,0
1.5910118323728e+15,0,-2,-7,-3,-2,-2,0,1
1.5910118323728e+15,0,1,10,-4,-1,-1,2,1
1.59101183238173e+15,-4,1,2,1,1,1,1,2
1.59101183238173e+15,-1,-2,-8,-4,0,0,-1,0
1.5910118323967e+15,-1,-5,-16,-15,0,0,-1,1
1.5910118323967e+15,1,4,11,16,-1,-1,-1,-3
1.59101183239769e+15,-3,-0,3,2,-1,-1,-1,-3
1.59101183239769e+15,0,-2,0,-9,-2,-2,-3,-3
1.59101183241942e+15,0,2,0,3,1,1,-3,2
1.59101183241942e+15,-1,-2,-8,1,-1,-1,-3,0
1.59101183242021e+15,-1,-3,-10,-12,-1,-1,0,1
1.59101183242021e+15,-12,-0,-9,14,-2,-2,0,-3
1.59101183243243e+15,-3,-0,11,-2,-5,-5,0,-2
1.59101183243243e+15,-2,-1,-1,-7,0,0,2,-3
1.59101183244215e+15,0,1,12,1,-2,-2,-1,-2
1.59101183244215e+15,-5,-7,-27,-7,-1,-1,0,-1
1.59101183245621e+15,1,5,21,8,-1,-1,-2,1
1.59101183245621e+15,-1,-2,0,-5,-2,-2,-4,0
1.59101183245811e+15,-3,-3,-8,-2,-1,-1,-3,-1
1.59101183245811e+15,2,-1,-3,-4,-1,-1,-3,0
1.59101183247912e+15,1,1,-3,7,-1,-1,-1,-1
1.59101183247912e+15,5,1,3,-7,-3,-3,1,4
1.59101183248105e+15,1,-0,-12,8,-3,-3,2,4
1.59101183248105e+15,1,3,27,-6,-2,-2,1,1
1.59101183250104e+15,0,-3,-6,-6,0,0,-1,-5
1.59101183250104e+15,-1,1,10,1,1,1,-2,-5
1.59101183250299e+15,-3,-6,-17,-7,-1,-1,-5,-7
1.59101183250299e+15,0,-1,-4,2,0,0,-3,-5
1.59101183251695e+15,-3,-0,1,0,0,0,-4,-4
1.59101183251695e+15,0,-4,-9,-12,-3,-3,-3,-5
1.59101183251795e+15,-2,2,10,8,-1,-1,1,-3
1.59101183251795e+15,-1,-0,1,-1,0,0,2,-1
1.59101183253901e+15,0,-1,-4,-4,-1,-1,1,0
1.59101183253901e+15,-1,-1,-6,-2,0,0,1,-2
1.59101183254089e+15,-5,-2,-6,-1,-1,-1,1,-4
1.59101183254089e+15,-2,2,21,4,-4,-4,-1,-4
1.59101183256187e+15,-3,-3,-8,-6,-2,-2,1,-1
1.59101183256187e+15,-1,1,-2,3,1,1,0,3
1.59101183256283e+15,2,3,2,7,2,2,-2,2
1.59101183256283e+15,-3,-3,-9,-9,1,1,-3,-1
1.59101183257604e+15,1,-0,-7,0,-3,-3,0,1
1.59101183257604e+15,7,3,11,0,-3,-3,1,4
1.59101183258377e+15,0,-1,-5,-2,-2,-2,-2,2
1.59101183258377e+15,2,-0,6,-6,-1,-1,-4,-1
1.59101183259899e+15,-2,-2,-8,10,0,0,-5,-6
1.59101183259899e+15,-3,-3,-18,-6,-1,-1,1,-3
1.59101183260073e+15,1,4,26,2,-3,-3,-2,0
1.59101183260073e+15,1,1,1,0,-3,-3,-2,4
1.59101183262171e+15,0,1,1,-1,-1,-1,-2,-1
1.59101183262171e+15,-2,-3,2,-2,0,0,-3,-6
1.59101183262272e+15,-1,-2,-4,-4,1,1,0,-3
1.59101183262272e+15,-4,-3,-4,-8,0,0,-2,-1
1.5910118326367e+15,2,1,0,1,-1,-1,-1,4
1.5910118326367e+15,-1,-1,-5,5,-4,-4,-4,5
1.59101183265163e+15,-1,-2,-4,-5,-3,-3,-1,1
1.59101183265163e+15,1,-2,-9,-4,-1,-1,1,-4
1.59101183265862e+15,-5,1,8,2,1,1,2,-4
1.59101183265862e+15,-1,-1,-1,-4,4,4,3,-5
1.5910118326727e+15,1,4,14,7,1,1,4,-3
1.5910118326727e+15,2,-3,-19,-1,0,0,0,-1
1.59101183268155e+15,1,-1,1,-2,-2,-2,-5,0
1.59101183268155e+15,-4,2,16,6,-1,-1,-3,0
1.59101183268255e+15,-4,-4,-9,-9,-2,-2,-1,-1
1.59101183268255e+15,-4,-1,3,-2,-1,-1,0,-1
1.59101183269565e+15,-2,-1,1,-1,0,0,0,0
1.59101183269565e+15,-1,-5,-17,-12,-3,-3,-1,-1
1.59101183270253e+15,0,-1,-8,2,-2,-2,-1,-1
1.59101183270253e+15,-1,2,10,5,0,0,-4,-1
1.59101183271947e+15,1,-2,-10,-4,1,1,-5,-1
1.59101183271947e+15,-3,-0,2,-2,3,3,-3,-3
1.59101183272044e+15,-1,-0,1,1,0,0,-1,-3
1.59101183272044e+15,-3,2,8,4,-1,-1,-4,1
1.59101183274264e+15,-2,1,1,5,-1,-1,-1,1
1.59101183274264e+15,-2,-1,-13,5,-2,-2,-4,1
1.59101183274339e+15,-1,1,12,3,-1,-1,-3,-1
1.59101183274339e+15,-1,-1,-5,1,-5,-5,1,1
1.59101183275535e+15,0,-1,-2,-12,-5,-5,3,-1
1.59101183275535e+15,-1,-1,-5,-4,-3,-3,-1,-1
1.59101183276234e+15,-3,-0,-4,0,0,0,-2,3
1.59101183276234e+15,-3,-3,-11,-7,-1,-1,0,1
1.59101183277962e+15,-3,-0,9,-1,1,1,0,-3
1.59101183277962e+15,-5,-7,-19,-9,-4,-4,-2,-6
1.59101183278527e+15,0,-1,5,-6,-3,-3,0,-4
1.59101183278527e+15,1,-2,-2,-9,0,0,-2,-2
1.59101183280921e+15,-3,-4,-11,-6,-3,-3,-2,-1
1.59101183280921e+15,-2,-0,8,-4,0,0,-2,-1
1.59101183281021e+15,-2,-2,-2,-8,-2,-2,-1,-2
1.59101183281021e+15,-4,-0,-5,1,1,1,0,-2
1.59101183281596e+15,5,2,5,-1,-1,-1,1,0
1.59101183281596e+15,1,2,5,10,-1,-1,-1,1
1.59101183282296e+15,1,-2,-7,-10,-2,-2,-2,2
1.59101183282296e+15,0,-1,-22,5,-1,-1,2,-2
1.59101183283904e+15,-3,-1,13,-15,0,0,1,-2
1.59101183283904e+15,-2,2,11,4,0,0,1,-2
1.59101183284687e+15,4,1,4,-3,0,0,0,-1
1.59101183284687e+15,0,-0,-1,5,-1,-1,-1,-1
1.59101183286198e+15,0,-0,-6,8,0,0,-2,0
1.59101183286198e+15,-3,-0,6,2,-1,-1,0,-1
1.59101183286782e+15,-7,-2,-3,1,-3,-3,-1,-3
1.59101183286782e+15,-2,2,10,-3,-3,-3,4,0
1.5910118328758e+15,-4,-3,-12,-1,-2,-2,1,-1
1.5910118328758e+15,-3,1,5,3,-1,-1,1,-2
1.59101183288286e+15,-1,-2,-4,-4,1,1,1,-4
1.59101183288286e+15,-1,-0,5,2,0,0,-2,0
1.59101183289876e+15,-1,-2,-12,-2,0,0,-2,-1
1.59101183289876e+15,-5,-1,1,-4,1,1,-1,-1
1.59101183290073e+15,-1,-1,-4,1,0,0,-3,-2
1.59101183290073e+15,2,-2,-3,-7,-3,-3,-3,-3
1.5910118329218e+15,1,-1,0,-1,-2,-2,-3,-4
1.5910118329218e+15,-3,-0,10,-5,-2,-2,-2,-1
1.5910118329228e+15,-4,-0,0,6,-2,-2,0,0
1.5910118329228e+15,-2,-1,2,0,-3,-3,0,-3
1.59101183293564e+15,-3,-4,-12,-7,-2,-2,1,-3
1.59101183293564e+15,1,-3,-17,4,-4,-4,-1,-1
1.59101183294269e+15,1,1,9,-2,1,1,-3,0
1.59101183294269e+15,1,2,4,8,3,3,-2,-1
1.59101183295762e+15,-2,-1,-6,-1,1,1,-3,0
1.59101183295762e+15,3,1,5,-2,1,1,-2,-1
1.59101183296656e+15,-1,-0,-4,-6,1,1,-1,0
1.59101183296656e+15,1,1,6,-3,-2,-2,0,-2
1.59101183298152e+15,-2,-0,-1,2,-4,-4,-3,0
1.59101183298152e+15,1,-1,-7,-4,-1,-1,2,2
1.59101183298351e+15,-1,5,38,0,-3,-3,0,-2
1.59101183298351e+15,1,-1,-3,1,0,0,-2,-1
1.59101183299554e+15,1,-0,-1,1,0,0,-1,0
1.59101183299554e+15,1,-1,-8,3,-2,-2,-2,-1
1.59101183300446e+15,-12,-5,-16,-1,-2,-2,-4,-3
1.59101183300446e+15,-4,-5,-17,-9,-1,-1,-3,0
1.5910118330264e+15,-1,1,4,4,-1,-1,-1,1
1.5910118330264e+15,-2,2,-1,11,0,0,-2,-1
1.59101183303437e+15,-1,-2,-10,-4,0,0,-2,1
1.59101183303437e+15,-1,1,8,-1,-1,-1,0,-2
1.59101183304155e+15,-5,-2,-7,-6,1,1,0,-2
1.59101183304155e+15,-3,-5,-9,-20,-3,-3,0,1
1.59101183304336e+15,0,3,8,9,-3,-3,2,1
1.59101183304336e+15,-2,-1,1,-2,-1,-1,-2,1
1.59101183306429e+15,1,1,2,2,0,0,-1,1
1.59101183306429e+15,0,-1,1,0,-1,-1,-3,0
1.59101183306529e+15,-1,-1,-16,5,0,0,-2,0
1.59101183306529e+15,-2,-0,0,1,-3,-3,-3,0
1.59101183307962e+15,-2,-0,1,4,-4,-4,0,-2
1.59101183307962e+15,-2,-1,6,-4,-3,-3,-2,-2
1.59101183308062e+15,3,-3,-11,-15,-4,-4,0,-2
1.59101183308062e+15,-1,-0,6,-7,-3,-3,0,0
1.59101183310156e+15,0,-2,-7,-10,-1,-1,0,1
1.59101183310156e+15,3,1,0,-2,0,0,0,-1
1.59101183311598e+15,8,-1,-4,-3,-1,-1,0,-1
1.59101183311598e+15,-3,-0,8,-1,-1,-1,0,-3
1.59101183311669e+15,-2,-1,-4,-1,0,0,0,-2
1.59101183311669e+15,-2,-0,-2,5,-2,-2,-1,1
1.591011833124e+15,-2,-4,-14,0,-2,-2,-3,-1
1.591011833124e+15,-2,1,1,0,-3,-3,0,1
1.59101183313995e+15,-3,-1,1,-2,-1,-1,0,-1
1.59101183313995e+15,0,1,0,0,-1,-1,0,-1
1.59101183314095e+15,-3,1,1,0,-2,-2,0,0
1.59101183314095e+15,-2,-3,-6,-9,-1,-1,-1,-3
1.59101183316216e+15,-1,2,10,2,-1,-1,-1,-2
1.59101183316216e+15,-1,-5,-15,-15,-1,-1,0,-2
1.59101183316289e+15,2,1,0,-5,0,0,1,0
1.59101183316289e+15,-3,-1,-1,-2,-2,-2,0,-3
1.59101183317502e+15,0,1,5,7,-2,-2,0,-2
1.59101183317502e+15,0,-2,3,-4,-1,-1,-4,-4
1.59101183318383e+15,-5,-0,2,5,0,0,-4,-1
1.59101183318383e+15,1,-3,-18,-5,1,1,-1,1
1.59101183319807e+15,1,4,19,3,-1,-1,-2,3
1.59101183319807e+15,-2,4,17,9,0,0,-3,2
1.59101183320677e+15,-2,-4,-15,-7,-2,-2,-2,-2
1.59101183320677e+15,-2,-1,-5,4,0,0,-3,-3
1.59101183322174e+15,-1,-4,-17,-3,-1,-1,-2,-2
1.59101183322174e+15,-2,-0,5,-4,-2,-2,1,0
1.59101183322274e+15,-1,3,13,8,0,0,0,0
1.59101183322274e+15,1,-0,-6,-1,-2,-2,1,-1
1.5910118332347e+15,-3,-0,-3,-3,1,1,1,-2
1.5910118332347e+15,-2,-1,0,-2,-2,-2,-1,-2
1.59101183324377e+15,2,-0,-8,0,0,0,-1,1
1.59101183324377e+15,-2,-0,3,-3,-2,-2,1,3
1.59101183325767e+15,-1,1,4,-1,0,0,1,-1
1.59101183325767e+15,0,-0,2,-5,0,0,0,-2
1.59101183326677e+15,1,-0,-5,-1,-1,-1,2,-4
1.59101183326677e+15,1,2,3,10,-1,-1,-1,-1
1.59101183328178e+15,1,-2,-10,-1,-4,-4,-5,1
1.59101183328178e+15,0,-3,-1,-12,-3,-3,-2,0
1.59101183328273e+15,-2,2,7,5,0,0,-3,-2
1.59101183328273e+15,-2,3,1,5,1,1,1,1
1.59101183329473e+15,4,1,-5,0,0,0,0,2
1.59101183329473e+15,-2,-0,-4,2,1,1,-2,-1
1.59101183330467e+15,-4,-4,-7,-9,-4,-4,-3,0
1.59101183330467e+15,-2,1,-1,7,-1,-1,-1,-1
1.59101183331963e+15,-1,1,6,5,0,0,-1,-3
1.59101183331963e+15,-1,-3,-14,-5,1,1,2,-1
1.59101183332063e+15,-2,1,15,-1,-1,-1,0,-7
1.59101183332063e+15,0,-2,1,-6,-2,-2,0,-3
1.59101183334157e+15,-2,-5,-12,-13,-2,-2,-2,-5
1.59101183334157e+15,-2,2,5,8,2,2,1,-5
1.59101183334781e+15,-1,-3,-10,-14,-1,-1,1,3
1.59101183334781e+15,-2,1,1,4,-2,-2,-1,2
1.59101183335576e+15,-3,-3,1,-6,-4,-4,-1,1
1.59101183335576e+15,0,1,1,4,-3,-3,-1,4
1.59101183336391e+15,1,-4,-19,-9,0,0,0,2
1.59101183336391e+15,2,1,6,-4,2,2,0,-3
1.59101183337999e+15,-2,-1,-6,-2,1,1,-1,-2
1.59101183337999e+15,0,-0,-4,0,0,0,-3,-1
1.59101183338086e+15,-1,1,10,4,-2,-2,-5,0
1.59101183338086e+15,0,-3,-11,-8,-3,-3,-4,0
1.5910118334018e+15,-2,1,2,1,-1,-1,-1,0
1.5910118334018e+15,0,-0,-4,-1,-2,-2,1,-2
1.59101183340279e+15,0,1,4,5,-2,-2,1,-1
1.59101183340279e+15,-4,-2,-7,-4,0,0,-1,0
1.59101183342384e+15,-6,1,4,8,3,3,-3,-2
1.59101183342384e+15,-1,-1,3,-7,-1,-1,-2,1
1.59101183342584e+15,1,1,2,2,0,0,-4,-1
1.59101183342584e+15,2,1,7,-4,0,0,-1,2
1.5910118334388e+15,-1,-2,-11,-2,-2,-2,0,0
1.5910118334388e+15,-4,-1,-5,2,-2,-2,0,0
1.59101183344079e+15,4,-1,0,-10,0,0,0,-3
1.59101183344079e+15,0,8,31,18,0,0,0,-1
1.59101183346182e+15,-4,-5,-14,-8,-2,-2,-4,-3
1.59101183346182e+15,-1,-1,3,1,0,0,-3,-1
1.59101183346274e+15,-3,-4,-17,-7,-1,-1,-1,1
1.59101183346274e+15,-5,-1,7,-2,-2,-2,-2,-1
1.59101183348368e+15,-1,2,12,1,-3,-3,2,0
1.59101183348368e+15,-2,-1,-8,4,-4,-4,1,-2
1.59101183348568e+15,-1,1,-3,8,-2,-2,3,-2
1.59101183348568e+15,-1,-1,1,-9,0,0,0,-4
1.59101183350662e+15,-2,-3,-15,-4,-3,-3,1,-2
1.59101183350662e+15,-2,-2,-6,2,-1,-1,-2,-4
1.59101183350861e+15,-2,3,19,3,0,0,1,-2
1.59101183350861e+15,1,-0,-1,-3,1,1,-1,-3
1.59101183352183e+15,-1,-0,-2,-5,2,2,-1,-2
1.59101183352183e+15,-1,-1,-1,-11,4,4,-4,1
1.59101183352262e+15,-3,1,1,7,2,2,-3,-3
1.59101183352262e+15,-3,-5,-26,-2,-1,-1,-3,-4
1.59101183354357e+15,1,4,14,10,-2,-2,-1,0
1.59101183354357e+15,-4,-6,-12,-25,-6,-6,0,-3
1.59101183354556e+15,-2,2,-1,9,-2,-2,2,0
1.59101183354556e+15,1,-2,-3,-10,-2,-2,2,1
1.59101183355853e+15,11,3,5,2,0,0,-1,2
1.59101183355853e+15,0,-0,2,6,-2,-2,-1,2
1.59101183356551e+15,-1,-1,3,-5,-1,-1,-1,2
1.59101183356551e+15,-1,-2,-6,-4,-4,-4,0,-2
1.59101183358166e+15,-2,-3,-6,-5,-2,-2,-3,0
1.59101183358166e+15,0,1,6,5,0,0,-4,-1
1.59101183358346e+15,0,-3,-14,-2,-1,-1,-3,-2
1.59101183358346e+15,1,-0,2,1,0,0,-1,-1
1.5910118336044e+15,-4,-1,0,1,-4,-4,-2,-4
1.5910118336044e+15,-1,-0,2,-2,-4,-4,0,-2
1.5910118336054e+15,-4,-0,-5,6,0,0,1,0
1.5910118336054e+15,-4,1,7,4,0,0,-1,-1
1.59101183361851e+15,-3,2,10,1,0,0,1,1
1.59101183361851e+15,-3,-2,-5,-8,-1,-1,2,0
1.59101183362637e+15,5,1,1,-3,-1,-1,0,-1
1.59101183362637e+15,-1,-4,-11,-15,-1,-1,-2,0
1.59101183364133e+15,1,-1,-6,-1,1,1,-1,-2
1.59101183364133e+15,1,5,19,10,2,2,-1,-1
1.5910118336433e+15,-4,-9,-36,-15,-4,-4,-3,-3
1.5910118336433e+15,-2,2,11,7,-2,-2,-2,0
1.59101183366427e+15,-4,-2,-3,-6,-2,-2,-2,2
1.59101183366427e+15,-4,-2,-2,1,-3,-3,-3,-2
1.59101183367022e+15,-1,-0,6,-3,-2,-2,-3,-2
1.59101183367022e+15,-4,-3,-12,-1,-2,-2,-1,-2
1.59101183367823e+15,2,-3,-5,-10,-5,-5,1,-1
1.59101183367823e+15,0,1,2,8,0,0,0,-1
1.59101183369227e+15,0,1,0,2,0,0,2,1
1.59101183369227e+15,2,-3,-10,-6,0,0,-3,-1
1.59101183370117e+15,0,1,6,2,-1,-1,-2,-1
1.59101183370117e+15,0,-1,-4,-1,-1,-1,-1,-2
1.59101183370314e+15,-1,-1,4,-5,-2,-2,-1,-1
1.59101183370314e+15,-3,-3,-16,-2,-1,-1,2,-1
1.59101183372512e+15,-1,-1,5,-8,1,1,0,-1
1.59101183372512e+15,0,-0,-18,12,0,0,-1,0
1.59101183372608e+15,-1,3,15,4,-2,-2,-1,-1
1.59101183372608e+15,-3,1,8,4,-3,-3,-2,-1
1.59101183373904e+15,-1,-0,6,-9,-1,-1,-1,-2
1.59101183373904e+15,3,5,15,5,2,2,-1,0
1.59101183374524e+15,0,-4,-16,-4,2,2,-3,-4
1.59101183374524e+15,-2,-3,-8,-6,-2,-2,-4,-3
1.59101183376201e+15,3,-1,-9,1,-2,-2,-2,1
1.59101183376201e+15,1,7,36,2,0,0,0,0
1.59101183376298e+15,-4,-2,-12,1,-1,-1,0,-1
1.59101183376298e+15,0,-0,7,0,-2,-2,-1,-2
1.59101183378395e+15,-4,-3,-13,1,-1,-1,-3,-4
1.59101183378395e+15,-4,-4,-15,-6,-3,-3,-1,0
1.59101183378592e+15,-7,2,10,5,1,1,1,-1
1.59101183378592e+15,1,1,2,-5,0,0,3,0
1.59101183379893e+15,-2,-1,-4,-1,-2,-2,2,-2
1.59101183379893e+15,1,1,1,2,0,0,0,-2
1.59101183380505e+15,-2,-3,-2,-6,-2,-2,-5,-3
1.59101183380505e+15,0,1,4,0,1,1,0,1
1.59101183382182e+15,-1,2,9,-1,1,1,-2,-1
1.59101183382182e+15,-2,-4,-8,-10,-3,-3,-3,-1
1.59101183382282e+15,3,4,12,3,-1,-1,1,1
1.59101183382282e+15,0,-1,-3,-5,0,0,0,-1
1.59101183384401e+15,-3,-0,-3,5,-2,-2,-1,-2
1.59101183384401e+15,-2,-1,0,0,-1,-1,1,-1
1.59101183384576e+15,4,-0,-7,-2,-2,-2,1,1
1.59101183384576e+15,-1,-1,-2,-1,-4,-4,-4,-1
1.5910118338667e+15,-1,1,-1,4,0,0,0,1
1.5910118338667e+15,-2,-2,-7,-3,-1,-1,-3,-2
1.5910118338677e+15,-3,-0,11,-2,-1,-1,0,0
1.5910118338677e+15,-1,-1,-5,1,-3,-3,-1,-1
1.5910118338819e+15,0,-1,0,-3,-2,-2,-3,-2
1.5910118338819e+15,-3,-1,-1,-5,2,2,1,-2
1.59101183388266e+15,-2,-2,-7,0,1,1,-2,-2
1.59101183388266e+15,-1,-0,2,-2,-1,-1,-1,-2
1.59101183390391e+15,-1,1,5,4,-2,-2,-3,-2
1.59101183390391e+15,-1,-3,-8,1,-3,-3,-2,-3
1.59101183390576e+15,-1,-2,1,-6,-1,-1,0,-13
1.59101183390576e+15,0,-2,-8,-1,0,0,-1,-13
1.59101183391882e+15,-1,-0,2,0,1,1,1,-10
1.59101183391882e+15,-1,-1,1,-4,-2,-2,-3,-2
1.59101183392486e+15,0,-1,-7,-3,0,0,-1,5
1.59101183392486e+15,-1,6,18,10,0,0,-4,6
1.59101183394176e+15,4,-1,-11,-4,-1,-1,-3,6
1.59101183394176e+15,1,-0,-2,-1,-2,-2,-1,5
1.59101183394266e+15,1,-1,-6,-3,-2,-2,-2,6
1.59101183394266e+15,-1,-0,-3,-4,1,1,1,6
1.59101183396378e+15,-2,6,32,7,-1,-1,-3,3
1.59101183396378e+15,-2,-1,-14,4,-1,-1,0,2
1.5910118339708e+15,-4,-3,-9,-1,-3,-3,-3,-3
1.5910118339708e+15,1,-0,-1,0,-2,-2,0,-1
1.59101183397781e+15,-5,-3,-8,-7,1,1,-3,-4
1.59101183397781e+15,-3,-0,7,-5,1,1,2,-4
1.59101183398672e+15,0,2,7,5,-1,-1,0,-1
1.59101183398672e+15,-4,-2,-12,-1,1,1,-2,-2
1.59101183400168e+15,0,-1,-4,-5,-3,-3,-2,1
1.59101183400168e+15,-3,-1,2,-4,0,0,-1,-2
1.59101183400268e+15,-1,1,0,3,-2,-2,-1,3
1.59101183400268e+15,-3,-2,-4,-4,-2,-2,0,1
1.59101183402481e+15,-1,-0,-7,1,0,0,1,-1
1.59101183402481e+15,2,-2,-13,-3,-2,-2,-3,-2
1.59101183402662e+15,-2,1,16,-4,-1,-1,-1,-2
1.59101183402662e+15,-1,-1,-2,1,-2,-2,-4,-1
1.59101183403759e+15,-2,-2,-12,0,0,0,-1,-1
1.59101183403759e+15,-2,-0,3,-4,-2,-2,1,-2
1.59101183404656e+15,1,-0,-2,2,-1,-1,-3,0
1.59101183404656e+15,-4,-3,3,-11,-3,-3,-3,-6
1.59101183406167e+15,-3,-1,-8,8,-2,-2,-2,-2
1.59101183406167e+15,11,-1,-7,-7,-2,-2,0,-1
1.59101183406267e+15,4,3,16,-1,0,0,2,-1
1.59101183406267e+15,1,-3,-19,0,-2,-2,0,-2
1.59101183408362e+15,-3,-1,-1,-8,-1,-1,0,0
1.59101183408362e+15,-1,-1,-1,-2,-2,-2,0,0
1.59101183408561e+15,-5,1,5,4,2,2,-3,-2
1.59101183408561e+15,-1,-0,-3,5,-2,-2,-2,-1
1.59101183409763e+15,2,1,2,2,-1,-1,1,-2
1.59101183409763e+15,-3,-0,7,1,1,1,0,-3
1.59101183411258e+15,-2,-4,-12,-8,-2,-2,1,-2
1.59101183411258e+15,-4,-1,-3,0,-1,-1,-3,-1
1.59101183412156e+15,-2,-5,-17,-12,-4,-4,-2,0
1.59101183412156e+15,-4,2,9,5,2,2,-1,-3
1.59101183412351e+15,-2,-2,-12,-1,-1,-1,-3,-1
1.59101183412351e+15,-2,5,29,4,0,0,-3,0
1.59101183414445e+15,-1,-4,-14,-7,-2,-2,-3,-1
1.59101183414445e+15,-3,-2,5,-4,-3,-3,-3,-4
1.59101183414545e+15,-6,-4,-8,-6,-1,-1,-1,-6
1.59101183414545e+15,0,-0,1,1,0,0,-1,-1
1.59101183415749e+15,0,-0,-2,-3,-1,-1,0,2
1.59101183415749e+15,-3,-2,-7,0,-2,-2,-3,1
1.59101183416647e+15,-1,-2,-6,-3,-3,-3,-2,0
1.59101183416647e+15,1,-0,4,1,-1,-1,-2,-3
1.59101183418161e+15,1,2,10,2,0,0,0,0
1.59101183418161e+15,1,2,0,6,0,0,-2,0
1.59101183418334e+15,9,-0,-7,-3,-1,-1,-1,1
1.59101183418334e+15,-3,-3,-7,-9,0,0,-1,-2
1.5910118342043e+15,-4,-0,0,5,0,0,-1,-4
1.5910118342043e+15,0,-1,-1,-6,-1,-1,0,-2
1.59101183420528e+15,-2,-1,2,-2,-3,-3,-2,-1
1.59101183420528e+15,-1,-2,-6,-4,-4,-4,-1,1
1.59101183421729e+15,1,3,15,5,0,0,-1,-2
1.59101183421729e+15,-4,-3,1,-5,-1,-1,-2,-2
1.59101183422623e+15,-6,-0,10,1,-1,-1,-2,-2
1.59101183422623e+15,3,2,-2,3,0,0,0,1
1.59101183424223e+15,-2,-2,-6,-5,-1,-1,-1,-1
1.59101183424223e+15,-1,-0,5,1,-3,-3,-1,0
1.59101183424418e+15,-1,-0,1,-2,-1,-1,0,1
1.59101183424418e+15,-1,-0,-3,4,-2,-2,0,-1
1.59101183426413e+15,-1,-2,-6,-2,-3,-3,-1,-3
1.59101183426413e+15,-1,-1,-7,-1,2,2,-2,-2
1.59101183426512e+15,-4,-1,-2,-5,0,0,-3,-2
1.59101183426512e+15,-1,1,6,-1,1,1,0,-1
1.59101183427824e+15,-1,-2,-7,-4,-2,-2,-1,0
1.59101183427824e+15,-2,1,7,4,-1,-1,-1,-1
1.59101183428706e+15,-1,-1,3,-3,-2,-2,-1,-1
1.59101183428706e+15,8,1,-2,-1,1,1,-1,-1
1.59101183430208e+15,-3,-1,-2,-2,-1,-1,-3,-1
1.59101183430208e+15,1,-2,-11,-3,-1,-1,-2,1
1.59101183430402e+15,3,4,12,9,-1,-1,-1,1
1.59101183430402e+15,-3,-7,-23,-13,-2,-2,0,-3
1.59101183432504e+15,-1,-0,-1,2,-2,-2,-1,-1
1.59101183432504e+15,-3,-3,-8,-3,-2,-2,-1,-3
1.59101183432598e+15,-2,-1,-6,3,-2,-2,0,-3
1.59101183432598e+15,-4,1,7,5,-1,-1,-1,0
1.591011834338e+15,-4,-1,2,-5,-2,-2,0,-2
1.591011834338e+15,1,-2,-6,-5,-3,-3,-2,0
1.59101183434691e+15,-5,-0,1,-2,0,0,-1,-1
1.59101183434691e+15,-2,-2,-11,4,-2,-2,-2,-1
1.59101183436193e+15,-1,2,21,0,0,0,-3,-1
1.59101183436193e+15,-1,-0,6,-4,0,0,0,1
1.59101183436286e+15,1,1,4,1,-2,-2,0,2
1.59101183436286e+15,-2,-1,3,-3,-1,-1,-1,-3
1.59101183438385e+15,-3,-4,-16,-5,-1,-1,0,-2
1.59101183438385e+15,5,1,-2,3,0,0,-1,-4
1.5910118343858e+15,-1,-1,0,-5,0,0,-1,-2
1.5910118343858e+15,-2,-0,8,-2,-2,-2,0,-1
1.5910118344068e+15,-1,-3,-14,-3,-1,-1,-2,-1
1.5910118344068e+15,-3,-2,-11,1,0,0,-1,-1
1.59101183440774e+15,0,-5,-25,-5,-2,-2,-1,-3
1.59101183440774e+15,2,5,27,4,1,1,0,-1
1.59101183442171e+15,1,3,20,4,-1,-1,-1,-2
1.59101183442171e+15,-4,-4,-18,-5,0,0,-2,-2
1.59101183442271e+15,0,1,6,2,-3,-3,-2,0
1.59101183442271e+15,-4,-3,-18,-1,-1,-1,0,-1
1.59101183444465e+15,1,-0,4,-4,-1,-1,-1,-1
1.59101183444465e+15,-4,-2,-4,-3,-1,-1,-2,-1
1.59101183445064e+15,5,3,3,8,0,0,-1,1
1.59101183445064e+15,-3,-2,-1,-5,0,0,-2,-4
1.59101183446582e+15,-4,-5,-23,-3,-2,-2,-2,-1
1.59101183446582e+15,-2,1,14,-1,-1,-1,-2,-1
1.59101183447456e+15,-2,-1,-2,1,-1,-1,-3,-3
1.59101183447456e+15,3,-1,3,-11,-1,-1,-2,0
1.5910118344816e+15,1,-0,-3,0,-1,-1,-1,-1
1.5910118344816e+15,-3,-0,0,3,-1,-1,0,-2
1.59101183448354e+15,-9,-2,4,-5,-1,-1,-1,-1
1.59101183448354e+15,0,-2,-9,-2,-1,-1,-1,-1
1.59101183450448e+15,-4,2,0,9,-1,-1,1,-1
1.59101183450448e+15,0,-0,3,-1,-2,-2,1,-3
1.59101183450548e+15,2,-1,-13,-5,0,0,0,0
1.59101183450548e+15,-3,4,19,6,-1,-1,-1,0
1.59101183452643e+15,0,-1,3,-6,-1,-1,-1,0
1.59101183452643e+15,-1,2,7,7,-1,-1,-1,0
1.59101183452842e+15,-2,-0,-3,3,-1,-1,-1,-1
1.59101183452842e+15,-1,-1,-6,-5,-1,-1,1,1
1.59101183454062e+15,0,-0,-3,1,0,0,1,-2
1.59101183454062e+15,-4,-2,-10,-2,-1,-1,0,0
1.59101183454837e+15,-3,-1,4,-3,0,0,-2,-2
1.59101183454837e+15,-1,-0,-5,6,0,0,-1,-2
1.59101183456432e+15,-2,-1,5,-5,-1,-1,-2,-3
1.59101183456432e+15,-3,-1,-1,-8,-2,-2,0,-3
1.59101183456532e+15,-1,-1,-10,0,-1,-1,-2,0
1.59101183456532e+15,-4,-2,-7,2,-2,-2,-4,0
1.59101183458633e+15,0,2,17,1,-4,-4,-2,0
1.59101183458633e+15,1,-0,-3,2,-1,-1,-1,0
1.59101183458826e+15,0,-1,4,-7,-1,-1,-2,-1
1.59101183458826e+15,0,-3,-16,-2,0,0,0,0
1.59101183460123e+15,0,1,-1,1,3,3,1,-2
1.59101183460123e+15,-1,-3,-9,-6,-2,-2,-2,0
1.5910118346082e+15,-1,-2,-8,-1,-2,-2,1,-2
1.5910118346082e+15,0,2,15,1,1,1,-3,-4
1.5910118346242e+15,0,-1,1,2,-3,-3,-4,0
1.5910118346242e+15,-4,-0,5,1,0,0,0,-1
1.5910118346253e+15,4,-1,-7,-5,0,0,0,0
1.5910118346253e+15,-1,-2,-7,0,-2,-2,-1,-3
1.5910118346461e+15,-2,-1,4,-7,0,0,-2,0
1.5910118346461e+15,2,-0,-1,0,-1,-1,-1,2
1.5910118346481e+15,-2,-0,4,-2,-2,-2,0,0
1.5910118346481e+15,2,1,4,1,-1,-1,-1,-2
1.59101183466121e+15,-2,-2,-11,-10,1,1,0,-1
1.59101183466121e+15,2,1,-6,10,0,0,-1,0
1.59101183466805e+15,-5,1,11,-3,1,1,-1,-1
1.59101183466805e+15,-2,1,9,-1,-4,-4,-2,2
1.591011834685e+15,-2,-2,-9,-4,-1,-1,0,0
1.591011834685e+15,0,-1,1,-12,0,0,0,-1
1.59101183469806e+15,0,-0,4,-6,-3,-3,0,-1
1.59101183469806e+15,-1,-2,-14,-1,-1,-1,0,-3
1.59101183470695e+15,4,-2,-5,-4,-3,-3,-2,1
1.59101183470695e+15,-3,-0,3,6,1,1,-3,-2
1.59101183470794e+15,-2,-2,-5,4,-1,-1,-3,-3
1.59101183470794e+15,6,3,21,-2,0,0,-1,-2
1.59101183472096e+15,-4,-2,-13,3,1,1,0,-4
1.59101183472096e+15,-1,-1,2,-3,-3,-3,1,-2
1.59101183472793e+15,-1,-0,-1,5,-2,-2,-3,-2
1.59101183472793e+15,-4,-3,-7,-8,-3,-3,-1,-1
1.59101183474385e+15,2,1,1,5,-2,-2,-1,-1
1.59101183474385e+15,1,4,14,2,-1,-1,1,1
1.59101183474586e+15,-1,-3,-13,-3,0,0,-1,0
1.59101183474586e+15,-2,-1,-7,0,0,0,0,0
1.59101183476679e+15,-3,-0,-1,3,-2,-2,0,-1
1.59101183476679e+15,-3,-1,5,-4,-1,-1,-4,0
1.59101183476778e+15,0,-1,-10,-1,0,0,-1,1
1.59101183476778e+15,-3,-1,-4,1,-2,-2,-2,0
1.59101183478093e+15,-3,-2,-2,-5,-2,-2,-2,-3
1.59101183478093e+15,2,-1,-5,3,-3,-3,-5,-3
1.59101183478796e+15,-2,-0,4,-2,-1,-1,-2,-2
1.59101183478796e+15,0,1,7,0,2,2,-2,-3
1.59101183480368e+15,-1,-1,-2,-2,-1,-1,0,-3
1.59101183480368e+15,2,-0,-2,1,-2,-2,0,0
1.59101183481166e+15,-4,1,6,4,0,0,-1,-1
1.59101183481166e+15,-5,-3,-10,-4,-2,-2,0,-2
1.59101183482662e+15,-2,-1,-1,-6,-1,-1,-2,-2
1.59101183482662e+15,0,-2,-6,-6,-1,-1,-1,-1
1.59101183482863e+15,1,-0,3,-1,-2,-2,-1,1
1.59101183482863e+15,0,-0,-1,-2,0,0,0,-1
1.59101183484061e+15,-1,-3,-18,-4,-2,-2,-3,-1
1.59101183484061e+15,1,-0,-2,-2,-1,-1,-1,-1
1.59101183484771e+15,-11,-3,-1,-6,-2,-2,-2,-2
1.59101183484771e+15,1,2,7,4,0,0,-3,1
1.59101183487164e+15,-1,-1,-4,3,-1,-1,-1,-2
1.59101183487164e+15,1,-0,-3,-5,-2,-2,-1,-2
1.5910118348735e+15,2,-0,6,-4,-1,-1,-1,-2
1.5910118348735e+15,0,-1,-7,-3,-2,-2,-1,0
1.59101183489448e+15,-2,1,9,3,-2,-2,0,-1
1.59101183489448e+15,-5,-3,-17,-4,3,3,1,-2
1.59101183490045e+15,2,2,2,7,0,0,0,0
1.59101183490045e+15,-3,1,9,-1,-1,-1,0,-2
1.59101183490143e+15,2,-0,-4,-1,-1,-1,0,-1
1.59101183490143e+15,-1,1,13,-4,-1,-1,-1,1
1.5910118349094e+15,-1,-1,2,-1,0,0,-2,0
1.5910118349094e+15,0,-3,-13,-9,0,0,-3,0
1.59101183492447e+15,0,3,9,4,1,1,-1,1
1.59101183492447e+15,-2,-3,-9,-4,-2,-2,-1,-2
1.59101183492536e+15,3,-0,-5,4,-2,-2,-1,-1
1.59101183492536e+15,-2,-1,0,2,-2,-2,-1,-2
1.59101183494638e+15,-3,2,15,0,0,0,-1,0
1.59101183494638e+15,-4,-2,-11,-1,-1,-1,-2,-1
1.5910118349483e+15,0,-2,-4,-7,0,0,-2,-1
1.5910118349483e+15,-1,-1,-3,-1,0,0,-1,-1
1.59101183495985e+15,1,-0,-1,-2,-2,-2,1,1
1.59101183495985e+15,7,1,-2,2,0,0,0,0
1.59101183496876e+15,-2,-1,-5,-2,-2,-2,-1,-1
1.59101183496876e+15,-6,-2,2,-1,-2,-2,-3,-5
1.59101183498369e+15,0,-0,1,-1,0,0,-2,0
1.59101183498369e+15,-5,-1,2,-1,-1,-1,-2,-3
1.59101183498569e+15,0,-2,-6,-3,-3,-3,0,-1
1.59101183498569e+15,3,-2,-14,-2,-3,-3,0,2
1.59101183500688e+15,-1,2,14,-2,0,0,0,0
1.59101183500688e+15,-1,-0,-2,2,-1,-1,-2,0
1.59101183500763e+15,-4,-4,-17,-4,-1,-1,-2,-3
1.59101183500763e+15,-1,-0,0,-1,1,1,0,-1
1.59101183502017e+15,-1,-2,-3,-2,-1,-1,-3,-3
1.59101183502017e+15,0,1,7,0,-1,-1,0,1
1.5910118350291e+15,0,1,8,-2,-2,-2,1,-1
1.5910118350291e+15,-6,-1,-4,-2,-2,-2,-1,-1
1.59101183504406e+15,-2,-2,-6,-2,-2,-2,-3,0
1.59101183504406e+15,-1,-1,-3,0,-1,-1,-2,0
1.59101183505005e+15,-2,-4,-10,-7,-2,-2,-2,-3
1.59101183505005e+15,-2,1,10,3,-1,-1,0,-2
1.59101183506631e+15,-2,-1,-3,-2,-1,-1,-1,-4
1.59101183506631e+15,-4,-1,-2,-2,-1,-1,1,-2
1.591011835068e+15,1,1,2,-1,0,0,0,0
1.591011835068e+15,3,-1,-7,-5,-1,-1,-1,-2
1.5910118350801e+15,7,1,0,5,-2,-2,0,-1
1.5910118350801e+15,-2,-0,1,-2,0,0,0,-1
1.59101183508894e+15,-2,1,-5,5,0,0,-1,0
1.59101183508894e+15,2,2,17,-3,-2,-2,0,0
1.59101183510401e+15,0,-1,-6,0,0,0,-4,0
1.59101183510401e+15,-2,-3,-12,-3,-2,-2,-2,0
1.5910118351059e+15,3,-0,-1,1,0,0,0,-2
1.5910118351059e+15,-1,-2,-2,-4,-2,-2,0,-1
1.59101183512693e+15,-4,-0,1,-1,-1,-1,-1,1
1.59101183512693e+15,-3,-1,3,-2,-2,-2,-1,-3
1.59101183512784e+15,0,-0,1,-2,0,0,0,-1
1.59101183512784e+15,-4,-5,-20,-10,-1,-1,-2,-2
1.59101183513981e+15,-1,1,7,2,0,0,-1,-1
1.59101183513981e+15,-1,1,6,1,0,0,-1,-2
1.59101183514878e+15,-3,-2,-6,-3,-2,-2,0,-1
1.59101183514878e+15,-2,-1,-2,0,-1,-1,-1,-3
1.59101183516474e+15,-1,-3,-8,-4,-2,-2,0,-2
1.59101183516474e+15,0,-0,5,-7,-1,-1,-2,0
1.59101183517078e+15,0,5,14,18,0,0,-1,-1
1.59101183517078e+15,-1,-2,-11,-6,-1,-1,0,1
1.59101183518673e+15,-1,-2,-11,-2,1,1,-1,-1
1.59101183518673e+15,-1,-0,3,1,-2,-2,-1,-1
1.59101183518768e+15,-1,3,22,-1,0,0,-2,0
1.59101183518768e+15,-7,-1,-2,1,1,1,-1,-2
1.59101183519969e+15,1,-1,0,-2,-2,-2,-1,-1
1.59101183519969e+15,4,-1,-9,-3,-1,-1,-1,0
1.59101183520962e+15,-4,-3,-4,-5,-2,-2,-1,-2
1.59101183520962e+15,-2,-0,2,2,-2,-2,1,-2
1.59101183522448e+15,-2,-0,1,-4,-1,-1,0,-1
1.59101183522448e+15,1,-1,-6,3,-3,-3,-2,1
1.59101183522549e+15,-1,1,3,1,-1,-1,-3,0
1.59101183522549e+15,4,2,9,5,-1,-1,-2,-1
1.59101183524645e+15,-2,-4,-15,-7,-2,-2,-2,1
1.59101183524645e+15,0,-0,1,-1,0,0,-3,-1
1.59101183525402e+15,2,-0,5,-6,-3,-3,0,-1
1.59101183525402e+15,-1,1,-3,4,2,2,1,0
1.59101183526023e+15,-2,1,4,3,0,0,2,-2
1.59101183526023e+15,-2,-1,-3,1,0,0,-2,0
1.59101183526897e+15,3,-2,-4,-7,-1,-1,-2,-1
1.59101183526897e+15,6,-1,-5,-6,-2,-2,-2,0
1.59101183528393e+15,2,-1,-6,-2,-3,-3,0,0
1.59101183528393e+15,-4,-2,11,-8,-2,-2,-3,-3
1.59101183528592e+15,-1,1,-2,4,0,0,1,-2
1.59101183528592e+15,1,3,8,6,1,1,-1,1
1.59101183530687e+15,-3,-2,-6,-2,-1,-1,1,-3
1.59101183530687e+15,-1,-1,-6,0,-2,-2,-1,0
1.59101183530787e+15,-3,-1,-2,-6,0,0,0,0
1.59101183530787e+15,7,3,11,-2,1,1,0,0
1.59101183531983e+15,-2,-2,-7,1,-2,-2,-6,0
1.59101183531983e+15,0,-1,-14,3,0,0,0,-2
1.59101183533479e+15,-4,-1,3,-9,-3,-3,-1,-2
1.59101183533479e+15,-1,-1,-8,-1,-2,-2,-1,-1
1.59101183534377e+15,-4,2,9,1,0,0,2,-2
1.59101183534377e+15,2,-0,3,-3,-1,-1,1,-2
1.5910118353458e+15,-1,-1,-5,6,-3,-3,-3,-1
1.5910118353458e+15,-6,-2,-9,-1,1,1,-2,-2
1.59101183536674e+15,-1,-2,-6,-4,-1,-1,-3,-1
1.59101183536674e+15,-3,-3,-15,-2,0,0,-2,1
1.59101183536771e+15,-3,4,24,4,0,0,0,0
1.59101183536771e+15,-3,2,13,5,-2,-2,-1,-2
1.59101183538965e+15,1,-1,-1,-7,-1,-1,0,-1
1.59101183538965e+15,2,1,-3,0,1,1,1,1
1.59101183539165e+15,0,-3,-16,-9,2,2,-3,0
1.59101183539165e+15,3,-1,-5,-3,-3,-3,-2,2
1.59101183540361e+15,-4,1,16,-5,-2,-2,-1,0
1.59101183540361e+15,-3,-2,-16,5,-2,-2,1,1
1.59101183540561e+15,-1,-3,-10,-7,-2,-2,-2,-2
1.59101183540561e+15,-2,-3,-5,-4,-2,-2,0,-4
1.59101183542655e+15,0,1,1,2,1,1,-1,-2
1.59101183542655e+15,1,2,15,0,-3,-3,0,-1
1.59101183542755e+15,-3,-1,-8,0,0,0,0,-2
1.59101183542755e+15,-4,-5,-9,-9,-4,-4,-3,-1
1.59101183544874e+15,5,2,-4,7,0,0,-1,-1
1.59101183544874e+15,-1,1,10,-1,-1,-1,-1,-1
1.59101183546464e+15,-2,-2,-7,-5,-1,-1,-1,2
1.59101183546464e+15,-6,-0,10,1,-2,-2,-2,-3
1.59101183546464e+15,-4,-0,0,2,0,0,-2,-2
1.59101183546464e+15,-3,-3,-16,-2,-2,-2,-3,-2
1.59101183547069e+15,0,-1,-3,2,-1,-1,0,-1
1.59101183547069e+15,3,1,1,1,0,0,0,0
1.59101183548642e+15,-10,-2,-6,-4,0,0,-2,1
1.59101183548642e+15,-6,-1,7,-1,-3,-3,-3,-1
1.59101183548839e+15,-1,-2,-3,-9,-1,-1,-1,-2
1.59101183548839e+15,1,-1,-7,0,1,1,0,-2
1.59101183550933e+15,1,2,7,2,-1,-1,-1,-2
1.59101183550933e+15,1,-1,-1,-3,2,2,1,-2
1.59101183551036e+15,-2,-0,-2,1,-1,-1,-1,0
1.59101183551036e+15,0,-1,-4,-1,-1,-1,-2,2
1.59101183553949e+15,0,-1,-3,-5,1,1,0,-1
1.59101183553949e+15,-3,-2,-4,-3,0,0,0,-3
1.59101183554024e+15,3,2,9,4,0,0,-1,-1
1.59101183554024e+15,1,-1,1,-3,-2,-2,-3,-2
1.59101183554631e+15,2,-0,1,-3,-3,-3,0,2
1.59101183554631e+15,-4,-0,4,-3,0,0,0,-2
1.59101183554822e+15,-1,1,-4,5,-1,-1,-1,1
1.59101183554822e+15,9,4,1,4,0,0,2,2
1.59101183556917e+15,-3,-3,-5,-8,-3,-3,-2,-1
1.59101183556917e+15,0,2,2,13,-2,-2,-2,0
1.59101183557017e+15,1,1,5,0,0,0,-1,-2
1.59101183557017e+15,-5,-5,-22,-1,0,0,-4,-4
1.59101183558317e+15,3,-0,-2,-1,1,1,-1,-1
1.59101183558317e+15,1,1,6,-2,0,0,-1,0
1.59101183559016e+15,-3,-2,-7,-2,-2,-2,1,-2
1.59101183559016e+15,-4,-0,0,-1,0,0,0,0
1.59101183560634e+15,-5,1,18,1,-2,-2,-3,-3
1.59101183560634e+15,-1,-3,-5,-8,-2,-2,-3,-3
1.59101183560806e+15,-1,-0,1,1,0,0,-2,-2
1.59101183560806e+15,-2,-1,-3,-2,0,0,1,-2
1.5910118356299e+15,0,-3,-17,0,-4,-4,-2,0
1.5910118356299e+15,0,2,15,-2,-2,-2,0,0
1.59101183563183e+15,2,-1,-1,-4,0,0,0,1
1.59101183563183e+15,-4,-1,-5,-1,0,0,0,0
1.59101183564371e+15,-1,-2,-7,1,-2,-2,-2,-2
1.59101183564371e+15,1,-0,1,0,-2,-2,-2,1
1.5910118356498e+15,-4,-2,-7,-3,-2,-2,-1,-2
1.5910118356498e+15,-2,-0,9,-3,-2,-2,-1,-2
1.59101183566665e+15,-2,-0,1,4,0,0,1,-2
1.59101183566665e+15,0,-3,-9,-10,-2,-2,-1,0
1.59101183566764e+15,4,2,2,4,0,0,1,0
1.59101183566764e+15,-3,-0,5,-8,-1,-1,-2,0
1.59101183568867e+15,-14,-4,-14,3,-1,-1,0,-2
1.59101183568867e+15,-1,1,8,1,-2,-2,0,0
1.59101183569058e+15,-3,-1,3,-4,-1,-1,-2,-1
1.59101183569058e+15,2,-2,-13,0,-3,-3,-1,-1
1.59101183570355e+15,2,-0,1,-1,1,1,-1,-2
1.59101183570355e+15,0,-2,-4,-7,1,1,-4,-2
1.59101183571075e+15,-2,1,3,6,-1,-1,-2,-1
1.59101183571075e+15,-2,-3,-13,-5,-3,-3,-2,-2
1.59101183572654e+15,3,-0,5,-1,-3,-3,-2,1
1.59101183572654e+15,-2,-3,-15,-1,-2,-2,-1,-3
1.59101183572849e+15,-2,1,10,-4,-1,-1,0,-2
1.59101183572849e+15,0,1,1,1,0,0,1,-2
1.59101183574954e+15,2,-1,-1,-4,-2,-2,-2,0
1.59101183574954e+15,-2,1,3,5,-1,-1,0,-2
1.59101183575043e+15,-4,-3,-9,-1,-2,-2,-1,-1
1.59101183575043e+15,-4,-1,-4,-2,0,0,-2,-1
1.59101183576344e+15,0,2,11,3,1,1,0,0
1.59101183576344e+15,-1,-1,-10,-1,1,1,0,-1
1.59101183577064e+15,-5,-3,-7,-5,-3,-3,-1,-3
1.59101183577064e+15,-1,-0,3,-1,-1,-1,0,-3
1.59101183578653e+15,2,1,6,-1,-2,-2,1,-1
1.59101183578653e+15,-3,-0,0,1,0,0,1,-1
1.59101183578833e+15,-2,-1,-6,2,-2,-2,-1,-1
1.59101183578833e+15,-4,-1,-3,1,0,0,-2,-1
1.59101183580832e+15,2,-2,-15,-3,-1,-1,0,0
1.59101183580832e+15,9,1,0,1,0,0,-1,0
1.59101183581625e+15,2,-0,1,-2,-2,-2,-1,2
1.59101183581625e+15,3,2,9,4,-1,-1,-3,1
1.59101183582323e+15,-1,-3,-3,-12,-2,-2,-3,-2
1.59101183582323e+15,-4,-0,1,5,1,1,-2,0
1.59101183583023e+15,1,-1,-6,-1,-3,-3,0,0
1.59101183583023e+15,5,-1,-6,-3,-3,-3,-2,-1
1.59101183584632e+15,-3,-2,-3,-3,0,0,-1,-3
1.59101183584632e+15,-2,1,17,-3,-2,-2,-2,0
1.59101183584816e+15,1,-0,-2,2,0,0,-3,-1
1.59101183584816e+15,-6,-2,-1,-2,-3,-3,-2,-3
1.59101183587019e+15,0,-0,-8,2,-1,-1,0,-2
1.59101183587019e+15,0,-1,-6,-4,-2,-2,2,0
1.5910118358711e+15,1,-0,4,0,-1,-1,-2,-1
1.5910118358711e+15,-2,-2,-2,-5,-1,-1,-2,-1
1.59101183589113e+15,1,-2,-6,-1,-5,-5,-3,0
1.59101183589113e+15,-2,-1,-2,-3,0,0,-2,-2
1.59101183589205e+15,0,-0,-1,3,0,0,0,-2
1.59101183589205e+15,-2,-2,2,-11,-2,-2,2,-1
1.59101183590601e+15,-1,6,20,19,-1,-1,-2,-1
1.59101183590601e+15,-1,-3,-19,2,-1,-1,-3,-1
1.59101183590715e+15,-2,-5,-7,-18,-2,-2,-3,-1
1.59101183590715e+15,-4,-1,-2,1,-1,-1,-2,-2
1.5910118359281e+15,0,-3,-5,-8,-4,-4,0,-2
1.5910118359281e+15,-4,-0,3,-2,-1,-1,0,-1
1.59101183592895e+15,3,-1,-9,-2,-1,-1,-2,1
1.59101183592895e+15,-2,1,5,2,0,0,0,-1
1.59101183595092e+15,-6,-2,-4,-2,1,1,0,-2
1.59101183595092e+15,-4,-0,1,0,-1,-1,-2,-2
1.59101183595189e+15,-4,-3,-7,-5,0,0,-2,-3
1.59101183595189e+15,-2,2,6,4,-1,-1,-1,-1
1.59101183596688e+15,-4,-0,5,-1,1,1,-3,-1
1.59101183596688e+15,-1,-1,-3,2,1,1,0,-1
1.59101183596688e+15,-3,-3,-7,-7,-3,-3,-1,-1
1.59101183596688e+15,-2,1,6,2,-1,-1,0,-3
1.59101183598879e+15,0,2,3,3,0,0,-1,0
1.59101183598879e+15,-1,-2,-4,-7,-3,-3,-1,-1
1.59101183599682e+15,-3,-1,-11,2,0,0,0,-2
1.59101183599682e+15,-5,1,0,4,-2,-2,0,0
1.59101183601073e+15,-1,-2,-7,-8,0,0,1,-1
1.59101183601073e+15,0,-0,4,-2,-2,-2,-2,-1
1.59101183601173e+15,0,1,7,3,-1,-1,-1,-2
1.59101183601173e+15,3,-1,-13,1,0,0,0,-1
1.59101183602569e+15,-1,-3,-2,-14,-2,-2,-3,-3
1.59101183602569e+15,-1,-2,-16,6,1,1,-2,-1
1.59101183602669e+15,-4,1,10,-3,1,1,-1,-2
1.59101183602669e+15,-1,-1,-4,-2,-3,-3,-2,0
1.59101183604888e+15,3,-0,-2,0,-1,-1,-1,1
1.59101183604888e+15,1,-0,1,-2,-1,-1,0,0
1.59101183604963e+15,0,-1,-9,-1,0,0,-2,-1
1.59101183604963e+15,2,1,8,-5,-1,-1,0,0
1.59101183607082e+15,-4,-5,-17,-9,-2,-2,-1,-1
1.59101183607082e+15,2,4,17,5,-2,-2,0,-1
1.59101183607157e+15,3,2,5,7,0,0,-1,0
1.59101183607157e+15,-4,-2,-1,-3,1,1,-1,-2
1.59101183608753e+15,-1,-0,-2,3,-1,-1,0,-1
1.59101183608753e+15,-5,-3,-7,-4,-1,-1,-1,-4
1.59101183608852e+15,-2,-2,-1,-6,-3,-3,2,-2
1.59101183608852e+15,4,4,17,5,0,0,-1,1
1.59101183610868e+15,-3,-3,-21,0,-2,-2,-1,-4
1.59101183610868e+15,-3,-1,0,-5,0,0,-3,-1
1.59101183610947e+15,1,-0,0,3,-2,-2,-2,0
1.59101183610947e+15,0,-1,-6,-2,-1,-1,-1,1
1.59101183613938e+15,0,1,9,-1,-1,-1,0,0
1.59101183613938e+15,3,-1,-8,-1,-1,-1,1,-1
1.59101183613938e+15,-2,-2,-11,1,-3,-3,-3,-2
1.59101183613938e+15,-2,-1,-3,-2,0,0,-2,1
1.5910118361454e+15,0,3,13,5,1,1,-1,-1
1.5910118361454e+15,-2,-3,-12,-5,-2,-2,-1,-2
1.59101183614637e+15,0,-1,-1,-3,-3,-3,-1,0
1.59101183614637e+15,2,3,15,1,-3,-3,0,0
1.59101183616845e+15,1,-0,-1,1,0,0,-1,-1
1.59101183616845e+15,10,2,2,-2,1,1,0,2
1.5910118361693e+15,-1,1,1,-1,1,1,1,-1
1.5910118361693e+15,-3,-4,-13,-5,-1,-1,-2,-2
1.5910118361904e+15,-5,1,3,4,2,2,0,0
1.5910118361904e+15,-5,-2,-2,-4,-2,-2,-2,-2
1.59101183619124e+15,-1,-2,-4,-1,-2,-2,-3,-2
1.59101183619124e+15,1,1,3,-2,-2,-2,-2,-1
1.59101183620551e+15,1,1,8,6,-3,-3,-2,-1
1.59101183620551e+15,-5,-6,-21,-10,-2,-2,-3,0
1.59101183620639e+15,-4,-0,2,-3,-1,-1,-1,-1
1.59101183620639e+15,-1,-4,-5,-4,-2,-2,-1,-5
1.59101183622833e+15,-2,3,15,3,1,1,-1,-3
1.59101183622833e+15,-4,-0,9,-1,-1,-1,-1,-1
1.59101183622933e+15,2,-1,-3,-2,0,0,-1,1
1.59101183622933e+15,-4,-2,-7,0,0,0,-3,-2
1.59101183625141e+15,2,-0,-4,1,-1,-1,-1,0
1.59101183625141e+15,-2,-1,-3,-3,-1,-1,0,-1
1.59101183625241e+15,-1,-0,-4,1,0,0,0,-1
1.59101183625241e+15,-3,-0,-1,0,0,0,1,0
1.5910118362654e+15,-2,-1,0,-2,-3,-3,-2,-1
1.5910118362654e+15,-3,-0,8,1,-2,-2,-1,-4
1.59101183626637e+15,-1,-2,0,-6,-1,-1,-2,-2
1.59101183626637e+15,0,1,-1,7,1,1,0,0
1.59101183628831e+15,-5,-3,-2,-7,-2,-2,-2,-1
1.59101183628831e+15,3,-1,-8,4,-2,-2,0,-3
1.59101183628931e+15,-1,1,5,2,-1,-1,-1,-1
1.59101183628931e+15,-1,-3,-10,-8,-3,-3,-2,0
1.59101183631146e+15,-5,-1,-5,-3,0,0,-2,0
1.59101183631146e+15,-3,-0,6,8,-3,-3,-2,-1
1.59101183631236e+15,-1,-1,1,-10,1,1,0,-1
1.59101183631236e+15,-1,-1,-5,-1,-1,-1,-3,0
1.59101183632637e+15,0,-1,-1,-2,0,0,-2,-1
1.59101183632637e+15,-5,-2,-5,-1,-4,-4,-1,-3
1.59101183632637e+15,2,1,0,2,-1,-1,-1,0
1.59101183632637e+15,-1,-2,-9,-2,-1,-1,-1,-1
1.59101183634935e+15,1,1,11,-3,-2,-2,-2,-1
1.59101183634935e+15,-3,3,17,4,0,0,0,0
1.59101183634935e+15,-3,1,2,2,-1,-1,0,0
1.59101183634935e+15,-2,-1,-6,-2,-1,-1,0,-1
1.59101183637125e+15,-1,-4,-20,-3,-2,-2,-1,-4
1.59101183637125e+15,1,-1,2,-7,1,1,-2,-2
1.59101183637125e+15,0,-1,-6,-2,-1,-1,0,-1
1.59101183637125e+15,-1,3,12,4,-1,-1,-1,-1
1.59101183638731e+15,0,-2,-11,0,-1,-1,0,1
1.59101183638731e+15,-3,-0,2,0,0,0,-1,-1
1.59101183640113e+15,-4,-3,-5,-2,-2,-2,-3,-3
1.59101183640113e+15,0,-1,2,-5,-2,-2,-2,-1
1.59101183640813e+15,-3,-0,1,1,-1,-1,-1,-2
1.59101183640813e+15,6,-0,-1,-4,-1,-1,-2,1
1.59101183641608e+15,3,4,11,6,1,1,0,-2
1.59101183641608e+15,1,2,5,6,0,0,-1,0
1.59101183643107e+15,-2,-4,-14,-8,0,0,-2,-2
1.59101183643107e+15,-1,-0,-8,4,1,1,2,-1
1.59101183643933e+15,-4,-1,-3,0,-3,-3,0,-1
1.59101183643933e+15,-2,1,5,-1,0,0,1,-1
1.59101183644804e+15,1,1,5,0,-1,-1,-1,0
1.59101183644804e+15,-3,-0,6,-1,0,0,-3,-2
1.59101183644804e+15,-3,-4,-24,0,0,0,-3,0
1.59101183644804e+15,-4,-1,2,-4,-3,-3,0,-1
1.59101183646794e+15,2,-0,0,1,-3,-3,-3,-2
1.59101183646794e+15,-3,-2,-3,-7,-1,-1,-3,0
1.59101183646895e+15,0,2,14,3,-2,-2,-2,0
1.59101183646895e+15,-3,-1,-3,-3,-1,-1,-2,-3
1.59101183649088e+15,-2,-0,2,-2,-1,-1,-1,0
1.59101183649088e+15,-2,-1,1,-3,-2,-2,1,-3
1.59101183649188e+15,-4,-1,0,-3,-1,-1,1,-1
1.59101183649188e+15,0,-1,-8,-5,1,1,0,0
1.59101183650593e+15,1,1,3,0,-1,-1,2,-1
1.59101183650593e+15,-12,-1,1,2,-2,-2,-1,-2
1.59101183650684e+15,0,-0,-2,4,-2,-2,-1,-1
1.59101183650684e+15,1,1,-2,-2,3,3,-1,-1
1.59101183652892e+15,-2,-3,-13,-5,1,1,-3,-4
1.59101183652892e+15,-1,-2,-4,-3,-3,-3,-4,0
1.59101183652892e+15,0,-0,-1,-1,-1,-1,-1,-3
1.59101183652892e+15,-2,-1,0,-2,-3,-3,-3,-3
1.59101183655179e+15,-4,-1,-2,-1,0,0,0,-1
1.59101183655179e+15,4,-1,-1,-6,-1,-1,2,-1
1.59101183655272e+15,-2,1,8,2,-2,-2,-1,-2
1.59101183655272e+15,0,-0,-7,-1,0,0,-2,-1
1.5910118365658e+15,0,2,9,2,-1,-1,-1,1
1.5910118365658e+15,-1,-1,-1,0,0,0,-2,-2
1.59101183656668e+15,-1,-3,-11,-6,-3,-3,-1,-1
1.59101183656668e+15,-1,-2,-6,-3,-3,-3,0,-1
1.59101183658862e+15,0,-0,6,-3,-1,-1,-1,-1
1.59101183658862e+15,1,3,7,9,0,0,0,1
1.59101183658962e+15,0,-0,3,-8,0,0,-2,-1
1.59101183658962e+15,-4,-2,-5,1,-1,-1,-3,-2
1.59101183661057e+15,1,-0,0,-3,-2,-2,-1,0
1.59101183661057e+15,1,-0,-4,-1,-1,-1,0,1
1.59101183661156e+15,-5,-1,-1,-1,0,0,-4,-2
1.59101183661156e+15,1,-0,5,2,-1,-1,-1,0
1.5910118366345e+15,-4,-2,-11,1,-2,-2,-1,-3
1.5910118366345e+15,-3,-1,0,-8,-1,-1,-1,-2
1.5910118366345e+15,2,-3,-17,-2,-2,-2,1,-1
1.5910118366345e+15,-2,-0,-4,1,-1,-1,1,0
1.59101183664847e+15,-3,1,6,0,-1,-1,-1,-1
1.59101183664847e+15,-1,-0,-7,5,-1,-1,-1,-1
1.59101183664946e+15,-2,-0,0,0,0,0,0,0
1.59101183664946e+15,-2,1,14,-3,0,0,-1,-1
1.59101183667147e+15,-2,-2,-10,2,0,0,-2,-1
1.59101183667147e+15,1,-0,2,-3,-2,-2,-3,1
1.59101183667147e+15,-4,1,7,-1,2,2,-2,-3
1.59101183667147e+15,-1,-1,-4,-2,-3,-3,0,-2
1.59101183669437e+15,1,-0,2,-4,-1,-1,0,-1
1.59101183669437e+15,0,-0,0,-2,-2,-2,1,-1
1.59101183669545e+15,3,-0,-2,3,-3,-3,-1,1
1.59101183669545e+15,-2,-2,-4,0,-2,-2,-1,-1
1.5910118367083e+15,0,-3,-11,-9,-2,-2,0,-2
1.5910118367083e+15,-1,-1,-7,0,1,1,-3,-2
1.5910118367093e+15,1,4,22,2,-2,-2,-1,-1
1.5910118367093e+15,-1,-2,-7,-4,-1,-1,-3,-1
1.59101183673024e+15,8,-0,1,-2,-3,-3,-2,1
1.59101183673024e+15,-9,-2,-6,-2,0,0,-2,0
1.59101183673922e+15,-4,-1,-4,-3,1,1,1,1
1.59101183673922e+15,-3,-2,-3,-3,0,0,-2,-3
1.59101183674727e+15,-1,5,19,9,-1,-1,1,-1
1.59101183674727e+15,-4,-2,-1,-2,-1,-1,-1,-5
1.5910118367482e+15,-2,-4,-18,-1,-3,-3,-1,-3
1.5910118367482e+15,3,-0,-3,-5,-1,-1,1,0
1.59101183676824e+15,-5,-0,1,0,0,0,-1,0
1.59101183676824e+15,2,1,1,-3,-2,-2,1,2
1.59101183676914e+15,-1,2,11,2,2,2,-1,-1
1.59101183676914e+15,-1,-2,-10,0,0,0,-3,-1
1.59101183679129e+15,-1,-1,-1,0,1,1,-2,-2
1.59101183679129e+15,-1,1,6,0,0,0,-1,-1
1.59101183679129e+15,0,-2,-8,-9,0,0,0,-1
1.59101183679129e+15,1,-0,-7,5,-1,-1,2,1
1.59101183680645e+15,-3,-4,-12,-9,-2,-2,-1,0
1.59101183680645e+15,-5,-2,-5,2,1,1,-1,-4
1.59101183680645e+15,0,-0,4,-1,-2,-2,-3,0
1.59101183680645e+15,-3,1,9,0,-1,-1,-3,0
1.59101183683655e+15,1,1,1,-1,0,0,0,-1
1.59101183683655e+15,3,-2,-9,-5,-3,-3,0,-1
1.5910118368373e+15,2,1,2,1,1,1,0,-1
1.5910118368373e+15,-2,-1,3,-2,0,0,-2,-2
1.59101183685127e+15,-2,-2,-9,2,-2,-2,-3,-1
1.59101183685127e+15,-3,-1,-2,0,-1,-1,-1,-3
1.59101183685127e+15,-2,1,11,-2,-1,-1,0,0
1.59101183685127e+15,-2,-1,-4,-4,-1,-1,1,-1
1.5910118368655e+15,1,-0,-3,-1,0,0,0,1
1.5910118368655e+15,2,2,11,0,-1,-1,-2,0
1.59101183687321e+15,-4,-3,-8,-6,-1,-1,-2,-1
1.59101183687321e+15,-6,-3,-7,-2,-2,-2,-3,-4
1.59101183688817e+15,-2,1,8,2,-1,-1,-3,-2
1.59101183688817e+15,2,-2,-13,-6,1,1,1,1
1.59101183688916e+15,-3,-1,-10,1,-2,-2,0,1
1.59101183688916e+15,-1,1,3,1,-1,-1,-1,0
1.59101183691124e+15,0,-1,3,-5,-1,-1,-1,-1
1.59101183691124e+15,2,3,15,4,-2,-2,-1,2
1.59101183691215e+15,0,-1,1,-3,1,1,-4,-2
1.59101183691215e+15,0,-4,-13,-10,-2,-2,-1,-3
1.59101183692706e+15,1,-0,2,-2,0,0,0,0
1.59101183692706e+15,-2,2,7,7,0,0,-2,-3
1.59101183693305e+15,0,-2,-11,-1,-2,-2,-2,-1
1.59101183693305e+15,-2,1,2,2,1,1,-1,-1
1.59101183694804e+15,-11,-3,-1,0,-3,-3,-2,-4
1.59101183694804e+15,-1,-3,-6,-8,-3,-3,1,-1
1.591011836949e+15,-2,-1,-3,-5,-1,-1,-1,-2
1.591011836949e+15,2,2,10,-1,-2,-2,-1,0
1.59101183697098e+15,-4,-0,-9,3,0,0,1,-1
1.59101183697098e+15,5,-1,-8,-1,-3,-3,-1,0
1.59101183697194e+15,-1,2,4,4,0,0,-1,-1
1.59101183697194e+15,-6,-2,-5,-3,-2,-2,-1,-3
1.5910118369869e+15,1,-1,-1,-3,-3,-3,-2,0
1.5910118369869e+15,0,-1,-7,-1,0,0,-1,-1
1.59101183699292e+15,1,1,9,-2,-3,-3,-1,0
1.59101183699292e+15,-3,-1,-2,-1,-1,-1,-1,-1
1.5910118370079e+15,1,1,6,2,0,0,0,-2
1.5910118370079e+15,-2,2,5,9,2,2,-2,-2
1.59101183700885e+15,0,-6,-18,-14,-4,-4,-2,-1
1.59101183700885e+15,-2,1,1,6,-1,-1,-2,0
1.59101183703084e+15,-1,-1,3,-4,-3,-3,-2,-3
1.59101183703084e+15,-4,-1,0,-5,1,1,0,-2
1.59101183703178e+15,-2,-1,-2,2,1,1,-1,-1
1.59101183703178e+15,2,-1,2,-11,-3,-3,0,0
1.59101183705478e+15,1,1,-2,8,0,0,0,0
1.59101183705478e+15,-3,-2,-4,-5,-2,-2,-1,-1
1.59101183705478e+15,-4,-0,6,2,-2,-2,-1,-2
1.59101183705478e+15,-1,-1,-5,-2,-3,-3,-2,-2
1.59101183706886e+15,-4,-0,1,-2,-1,-1,-2,-1
1.59101183706886e+15,5,1,2,-2,-1,-1,-1,0
1.59101183706886e+15,-1,-1,-2,4,-1,-1,-3,-1
1.59101183706886e+15,-1,1,6,4,1,1,-2,-1
1.59101183709063e+15,-7,-4,-9,-7,-1,-1,-3,-2
1.59101183709063e+15,4,-2,-9,-5,-2,-2,-1,0
1.59101183709163e+15,1,1,1,1,-2,-2,1,-1
1.59101183709163e+15,0,-1,-9,0,-1,-1,-2,-1
1.59101183710581e+15,1,1,10,-1,1,1,-3,-2
1.59101183710581e+15,-5,-4,-26,4,-1,-1,-1,-1
1.59101183711357e+15,2,2,7,4,-2,-2,0,0
1.59101183711357e+15,-3,1,6,2,2,2,1,-2
1.59101183712872e+15,3,1,0,1,-2,-2,-1,2
1.59101183712872e+15,-4,-3,-3,-9,0,0,-1,-2
1.59101183712953e+15,-2,1,-1,1,0,0,-1,-1
1.59101183712953e+15,-2,-0,3,1,-1,-1,-2,-1
1.59101183715047e+15,2,1,3,-1,-2,-2,-2,-1
1.59101183715047e+15,-1,-0,8,3,-2,-2,-3,-2
1.59101183715147e+15,-5,-4,-17,-2,0,0,-2,-4
1.59101183715147e+15,2,-0,0,-1,-1,-1,-3,0
1.59101183716567e+15,0,-2,-8,-3,-1,-1,-1,-2
1.59101183716567e+15,0,1,10,-1,-2,-2,-3,1
1.59101183717345e+15,-2,-1,1,-4,0,0,0,-3
1.59101183717345e+15,-6,-2,-1,-2,-3,-3,0,-3
1.59101183719638e+15,-3,-2,-11,-2,0,0,0,-1
1.59101183719638e+15,-3,-1,-3,0,-1,-1,1,-1
1.59101183719734e+15,4,-0,3,-12,2,2,0,1
1.59101183719734e+15,1,1,-9,13,-2,-2,-2,0
1.59101183721131e+15,-3,-0,4,-5,0,0,1,-1
1.59101183721131e+15,-2,-1,-2,-3,0,0,-1,-1
1.59101183721131e+15,-3,2,10,1,-2,-2,-2,1
1.59101183721131e+15,-1,-3,-15,-6,0,0,-1,-1
1.59101183723424e+15,1,1,7,-1,0,0,-1,-1
1.59101183723424e+15,-2,-5,-28,-5,-1,-1,-1,-1
1.59101183723524e+15,-1,3,18,6,-2,-2,-1,-1
1.59101183723524e+15,5,1,5,-2,-2,-2,-1,-1
1.59101183724843e+15,2,-0,-2,2,-1,-1,-1,0
1.59101183724843e+15,1,2,9,6,-1,-1,-1,-1
1.5910118372492e+15,-4,-3,-16,-2,-2,-2,-2,0
1.5910118372492e+15,-1,2,8,2,1,1,-1,1
1.59101183727934e+15,-11,-2,-2,-6,1,1,-1,0
1.59101183727934e+15,-1,2,14,-2,0,0,-1,0
1.59101183728012e+15,-2,-3,-10,-2,-3,-3,-1,-3
1.59101183728012e+15,-3,1,4,0,0,0,0,-3
1.59101183730206e+15,3,-1,-2,-4,-2,-2,-3,0
1.59101183730206e+15,-2,-3,-10,-5,-1,-1,-3,-1
1.59101183730306e+15,1,-0,-6,2,0,0,0,1
1.59101183730306e+15,-1,-1,8,-6,-1,-1,-2,-3
1.59101183730805e+15,1,-0,-4,10,-2,-2,-1,-3
1.59101183730805e+15,-1,-0,4,-4,-2,-2,2,1
1.59101183730904e+15,2,3,14,0,-1,-1,0,-1
1.59101183730904e+15,1,-1,-12,-5,-1,-1,-1,0
1.59101183733098e+15,-13,-3,-4,0,-3,-3,1,-3
1.59101183733098e+15,1,-0,8,-1,-2,-2,-1,-2
1.59101183733801e+15,0,-1,-14,1,0,0,-2,0
1.59101183733801e+15,1,1,10,-3,-2,-2,1,1
1.59101183735494e+15,-1,-3,-12,-7,0,0,-1,0
1.59101183735494e+15,-1,3,12,6,0,0,-1,-1
1.59101183735494e+15,-4,-3,-8,-6,-1,-1,-3,-2
1.59101183735494e+15,-3,1,10,4,-1,-1,-2,-1
1.59101183736792e+15,2,2,1,3,0,0,0,1
1.59101183736792e+15,-1,-3,-11,-4,-1,-1,-1,-1
1.59101183736889e+15,-1,-1,-3,-1,-2,-2,-1,-1
1.59101183736889e+15,-2,-3,-8,-6,-1,-1,-3,-3
1.59101183739082e+15,2,-0,2,-1,-1,-1,-3,-4
1.59101183739082e+15,-1,-0,0,2,-1,-1,-3,-3
1.59101183739184e+15,-4,-1,-7,4,-2,-2,-1,-1
1.59101183739184e+15,-1,-2,-7,-10,-1,-1,-1,1
1.59101183741276e+15,1,1,3,1,-2,-2,0,1
1.59101183741276e+15,-2,1,11,0,-2,-2,-4,-2
1.59101183742074e+15,-3,-2,-5,-3,-2,-2,-1,-1
1.59101183742074e+15,-3,-1,-14,5,0,0,2,-1
1.59101183742876e+15,2,2,12,1,-1,-1,-1,0
1.59101183742876e+15,-3,1,12,-3,-2,-2,0,-1
1.59101183742876e+15,6,1,-2,0,0,0,-2,-2
1.59101183742876e+15,2,-1,2,-8,-2,-2,-1,-2
1.59101183745069e+15,4,-2,-13,-4,-1,-1,-3,0
1.59101183745069e+15,-2,-1,-9,0,0,0,0,0
1.59101183745166e+15,-2,-0,3,-3,-1,-1,-1,-1
1.59101183745166e+15,1,-1,-5,-3,-1,-1,-2,1
1.59101183747376e+15,0,-0,5,-3,-2,-2,-1,0
1.59101183747376e+15,-2,1,10,2,-1,-1,-2,0
1.59101183747475e+15,0,-1,-10,1,0,0,-1,1
1.59101183747475e+15,-4,-3,-4,-2,-3,-3,-3,-2
1.59101183748884e+15,-1,-0,3,-4,-2,-2,0,-1
1.59101183748884e+15,-2,-1,-8,3,-1,-1,0,-1
1.59101183748884e+15,0,3,18,-4,-1,-1,1,1
1.59101183748884e+15,-1,1,2,3,-1,-1,-2,0
1.59101183751092e+15,-4,-4,-13,-4,-1,-1,-1,-2
1.59101183751092e+15,-2,-2,-5,-5,0,0,-2,-1
1.59101183751165e+15,0,-2,-8,-2,0,0,1,-1
1.59101183751165e+15,-3,3,16,8,0,0,-2,-1
1.59101183753359e+15,-3,-0,7,1,-3,-3,0,-3
1.59101183753359e+15,-2,-1,0,-3,-1,-1,-1,-1
1.59101183753459e+15,-2,-3,-8,-9,-1,-1,-2,-1
1.59101183753459e+15,3,-2,-23,5,-2,-2,0,-2
1.59101183754858e+15,3,3,11,2,1,1,0,0
1.59101183754858e+15,6,1,5,-1,-1,-1,0,0
1.59101183755561e+15,-2,-0,-3,3,-2,-2,0,-1
1.59101183755561e+15,4,-0,3,-6,-3,-3,-1,2
1.59101183758545e+15,0,-1,-11,1,-1,-1,-1,2
1.59101183758545e+15,-1,-2,-5,-7,-2,-2,-1,-2
1.59101183759547e+15,0,-0,3,3,-1,-1,-2,-3
1.59101183759547e+15,-1,-0,1,0,2,2,-1,-2
1.59101183759742e+15,0,-0,2,-6,-1,-1,0,0
1.59101183759742e+15,-6,-6,-20,-5,-4,-4,-1,-3
1.59101183759742e+15,-4,-0,10,-3,-3,-3,0,1
1.59101183759742e+15,-5,-3,-12,0,-2,-2,0,-1
1.59101183761039e+15,1,1,15,4,-3,-3,-3,-2
1.59101183761039e+15,-2,-2,-11,-4,1,1,-1,0
1.59101183761138e+15,-1,-1,-1,-2,0,0,-1,-1
1.59101183761138e+15,0,-1,-5,-3,1,1,-2,-2
1.59101183763165e+15,2,-1,-13,-1,-2,-2,1,-1
1.59101183763165e+15,-1,2,13,1,-2,-2,-1,-1
1.59101183763233e+15,-1,1,3,4,0,0,-1,-2
1.59101183763233e+15,-1,1,6,-4,-2,-2,0,0
1.59101183766224e+15,-1,-3,-20,-3,-2,-2,0,-2
1.59101183766224e+15,-2,-1,-3,1,-2,-2,0,-1
1.59101183766324e+15,-10,-2,2,-2,-2,-2,0,-3
1.59101183766324e+15,-2,-1,-9,2,-1,-1,1,-4
1.59101183767022e+15,-2,-1,7,-6,-2,-2,-1,-1
1.59101183767022e+15,0,3,7,10,-1,-1,-4,0
1.59101183767122e+15,1,-0,4,-7,0,0,-2,0
1.59101183767122e+15,-1,-0,4,-2,-1,-1,-1,0
1.59101183769151e+15,-3,-1,8,-4,-1,-1,-2,-2
1.59101183769151e+15,-2,-0,-4,6,0,0,1,-2
1.59101183769151e+15,-1,-0,-4,4,-1,-1,-1,-2
1.59101183769151e+15,1,-0,5,-3,-1,-1,0,-2
1.5910118377144e+15,-2,-1,-9,0,2,2,-1,-1
1.5910118377144e+15,-2,1,10,-2,0,0,-1,0
1.59101183771527e+15,0,2,7,1,-1,-1,-1,0
1.59101183771527e+15,-2,-2,-10,-3,-1,-1,-2,-2
1.59101183772833e+15,-4,-2,-6,0,-3,-3,-2,0
1.59101183772833e+15,-1,1,-2,2,0,0,1,-1
1.59101183772924e+15,1,1,3,-2,-3,-3,0,1
1.59101183772924e+15,-1,-0,3,-3,-2,-2,0,0
1.59101183775122e+15,3,2,6,4,0,0,-1,2
1.59101183775122e+15,5,-0,-3,-3,-2,-2,-2,0
1.59101183775221e+15,2,-1,-2,-5,0,0,-2,-2
1.59101183775221e+15,0,-0,2,0,-1,-1,-3,-2
1.59101183777359e+15,-2,-3,-12,-3,-2,-2,-3,-2
1.59101183777359e+15,2,1,3,-3,-1,-1,1,0
1.59101183778062e+15,-2,-0,9,0,-2,-2,-3,-2
1.59101183778062e+15,2,-2,-18,0,-2,-2,1,0
1.59101183778854e+15,-1,-2,1,-6,-2,-2,-2,-2
1.59101183778854e+15,-4,-3,-1,-7,-3,-3,-2,-2
1.59101183778954e+15,-1,-1,-13,2,-1,-1,0,1
1.59101183778954e+15,-2,3,16,4,-1,-1,0,0
1.59101183781053e+15,0,-1,-4,-4,-2,-2,1,-1
1.59101183781053e+15,-2,-3,-9,-2,-1,-1,-2,-2
1.59101183781148e+15,-2,-2,-6,-6,0,0,0,-1
1.59101183781148e+15,0,-0,-2,4,-2,-2,-4,-2
1.59101183783325e+15,-2,-1,-1,1,-1,-1,0,-1
1.59101183783325e+15,-2,-1,4,-5,-1,-1,-2,-2
1.59101183783425e+15,0,-0,2,0,-2,-2,1,-1
1.59101183783425e+15,-4,-0,4,-2,1,1,1,-1
1.59101183784833e+15,-2,-4,-13,-5,-1,-1,-1,-3
1.59101183784833e+15,-1,-1,-4,-3,-1,-1,1,1
1.59101183785627e+15,3,3,11,1,1,1,0,2
1.59101183785627e+15,0,1,2,-2,-1,-1,-1,1
1.5910118378714e+15,-6,2,8,8,0,0,1,-1
1.5910118378714e+15,-1,-3,-12,-3,-2,-2,-1,-1
1.5910118378714e+15,-4,-5,-19,-11,-1,-1,-3,-4
1.5910118378714e+15,-4,-0,8,-4,-3,-3,-2,-2
1.59101183789417e+15,5,2,3,4,0,0,-1,0
1.59101183789417e+15,-7,-3,-3,-7,-2,-2,-1,-2
1.5910118378951e+15,-4,1,0,12,-1,-1,0,0
1.5910118378951e+15,0,-1,-1,-1,-1,-1,-1,-1
1.59101183791617e+15,-4,-4,-11,-6,-1,-1,-2,-1
1.59101183791617e+15,-1,-0,6,2,-2,-2,-3,-1
1.59101183791703e+15,-2,-1,-7,-1,0,0,-2,-1
1.59101183791703e+15,-2,-2,-7,-3,-2,-2,-2,-1
1.59101183793099e+15,-3,-1,2,2,-3,-3,-1,-1
1.59101183793099e+15,-1,-0,2,7,-3,-3,-3,-1
1.59101183793213e+15,-1,-1,-4,-3,-1,-1,-1,-4
1.59101183793213e+15,-3,1,-2,3,0,0,1,-1
1.59101183796195e+15,-2,-1,-1,-5,-1,-1,0,-1
1.59101183796195e+15,1,-0,3,0,0,0,0,0
1.59101183796195e+15,-1,-1,1,-1,-3,-3,-1,-2
1.59101183796195e+15,-3,-2,-9,-3,0,0,1,-1
1.59101183796793e+15,-1,1,4,8,0,0,-1,-2
1.59101183796793e+15,1,-2,-5,-16,0,0,1,1
1.59101183797587e+15,0,-0,2,1,-1,-1,-2,0
1.59101183797587e+15,-1,-2,-9,-7,-1,-1,0,-3
1.59101183799187e+15,0,1,7,2,-3,-3,-3,-1
1.59101183799187e+15,0,1,4,4,0,0,-1,-3
1.59101183799187e+15,-5,-1,-4,-3,1,1,0,-3
1.59101183799187e+15,2,-0,4,-1,-2,-2,-3,0
1.59101183801277e+15,-2,-1,-1,-6,0,0,0,-1
1.59101183801277e+15,-2,-2,-6,-6,-2,-2,-1,-3
1.59101183801377e+15,2,1,-1,6,-2,-2,-1,-1
1.59101183801377e+15,-3,-0,-4,1,1,1,-1,-1
1.59101183802775e+15,1,2,9,1,2,2,-3,2
1.59101183802775e+15,-4,-4,-16,-3,-2,-2,-2,-1
1.59101183803599e+15,3,-1,-4,-7,0,0,0,3
1.59101183803599e+15,1,3,19,7,-1,-1,-1,-1
1.59101183805168e+15,0,-1,-5,-4,0,0,-3,-2
1.59101183805168e+15,-3,-0,2,4,0,0,-2,-2
1.59101183805865e+15,-2,-2,-8,-5,-2,-2,-2,-1
1.59101183805865e+15,1,-2,-9,-2,-2,-2,-1,1
1.59101183807376e+15,-3,-1,6,-6,-2,-2,0,0
1.59101183807376e+15,2,2,3,4,0,0,-1,1
1.59101183807477e+15,0,-0,1,-2,0,0,-1,-2
1.59101183807477e+15,1,-3,-13,-3,-3,-3,-1,-1
1.59101183808787e+15,-2,-0,-5,-4,2,2,1,1
1.59101183808787e+15,-1,1,11,4,-2,-2,-1,-5
1.59101183809655e+15,1,-6,-32,-7,-2,-2,-2,-4
1.59101183809655e+15,-1,1,13,-2,-1,-1,-2,-2
1.59101183811063e+15,0,-2,-9,-3,-1,-1,-3,-1
1.59101183811063e+15,1,2,9,-1,1,1,-2,-1
1.59101183811151e+15,0,2,8,0,-1,-1,-1,2
1.59101183811151e+15,-1,-0,0,3,-1,-1,1,-1
1.59101183813345e+15,-1,-1,-7,1,-1,-1,0,-2
1.59101183813345e+15,-3,-3,-10,-7,0,0,0,1
1.59101183813445e+15,1,1,5,4,-3,-3,0,-1
1.59101183813445e+15,-3,-2,-5,-4,-1,-1,-1,-2
1.59101183814744e+15,0,-0,2,3,-2,-2,0,-1
1.59101183814744e+15,-1,-0,3,-4,-1,-1,0,0
1.59101183816337e+15,-1,-1,4,-1,-1,-1,-1,-2
1.59101183816337e+15,-1,-3,-12,-7,0,0,-2,-2
1.5910118381714e+15,0,-0,3,2,0,0,-2,-2
1.5910118381714e+15,-1,2,9,2,-1,-1,-1,-1
1.5910118381714e+15,1,-3,-11,-5,-2,-2,-3,-2
1.5910118381714e+15,-5,-1,-1,1,-1,-1,-2,-2
1.59101183819334e+15,-2,-0,2,3,-2,-2,-1,-1
1.59101183819334e+15,4,-0,-9,-1,0,0,0,0
1.59101183819429e+15,-3,-1,-5,1,0,0,1,-1
1.59101183819429e+15,-1,-0,-1,-3,0,0,-1,0
1.59101183821723e+15,-3,-3,-10,-5,-2,-2,-1,-2
1.59101183821723e+15,2,1,4,3,-2,-2,0,-2
1.59101183821823e+15,-3,-1,-6,1,0,0,2,-3
1.59101183821823e+15,-1,-1,-1,-6,-2,-2,1,0
1.59101183823939e+15,1,1,-1,3,-1,-1,0,1
1.59101183823939e+15,-6,-0,4,-1,-1,-1,0,-1
1.59101183824017e+15,6,-1,-2,-6,0,0,-2,2
1.59101183824017e+15,1,1,3,-2,-1,-1,-2,-1
1.59101183825319e+15,1,1,5,4,0,0,-3,-3
1.59101183825319e+15,1,-0,-7,-3,-2,-2,0,-1
1.59101183825447e+15,-1,2,4,6,-1,-1,-2,0
1.59101183825447e+15,2,1,3,1,-2,-2,1,-1
1.59101183827722e+15,1,1,11,-8,0,0,-2,-1
1.59101183827722e+15,0,1,-5,8,1,1,-2,1
1.59101183827722e+15,-5,-0,11,1,-1,-1,-3,-2
1.59101183827722e+15,-4,-2,-8,-1,-1,-1,-1,-1
1.59101183829103e+15,-1,-2,-5,-3,-3,-3,-1,-1
1.59101183829103e+15,0,-0,4,-2,-3,-3,-2,-2
1.59101183829906e+15,-1,-1,0,-3,-2,-2,-3,-2
1.59101183829906e+15,-1,1,11,2,-4,-4,-3,-1
1.59101183831397e+15,-3,-0,1,0,-2,-2,0,-2
1.59101183831397e+15,-1,-1,-7,-4,-1,-1,-1,-2
1.59101183831397e+15,-1,-0,-2,-1,0,0,0,-1
1.59101183831397e+15,-1,-1,-3,-1,-1,-1,-4,-1
1.59101183833693e+15,-4,-2,-4,-2,-1,-1,0,1
1.59101183833693e+15,-2,-2,-5,-5,-1,-1,-1,0
1.59101183833693e+15,-4,-1,-2,-1,-2,-2,-1,-1
1.59101183833693e+15,-10,-2,4,-3,-1,-1,0,-3
1.59101183835093e+15,1,-1,-5,0,1,1,-1,-1
1.59101183835093e+15,-2,-2,-8,-2,1,1,-1,-3
1.59101183835189e+15,-1,1,2,0,-1,-1,-1,0
1.59101183835189e+15,0,-0,1,-5,0,0,-2,-2
1.59101183837293e+15,2,1,5,3,-1,-1,-3,-1
1.59101183837293e+15,-1,-3,-15,-4,-1,-1,-1,-1
1.59101183837383e+15,-1,3,9,4,0,0,0,1
1.59101183837383e+15,-2,-1,-9,1,-1,-1,0,-1
1.5910118383968e+15,-1,-2,-3,-4,-1,-1,1,0
1.5910118383968e+15,5,-1,-3,-2,-4,-4,-2,1
1.59101183839777e+15,-3,-0,7,-3,-2,-2,-2,-1
1.59101183839777e+15,1,1,-1,5,-1,-1,-1,0
1.59101183841085e+15,-1,-0,1,-3,-1,-1,-1,-2
1.59101183841085e+15,-2,-1,-3,0,1,1,-1,0
1.59101183841871e+15,2,-0,0,-2,-2,-2,2,0
1.59101183841871e+15,1,-1,-8,-2,-1,-1,-1,-2
1.59101183843367e+15,0,-2,-16,1,-1,-1,-1,-1
1.59101183843367e+15,-1,3,33,-5,-3,-3,-2,0
1.59101183843367e+15,-2,-1,-9,5,-1,-1,-2,-2
1.59101183843367e+15,2,2,9,1,-1,-1,1,0
