TimeStamp,emg1,emg2,emg3,emg4,emg5,emg6,emg7,emg8
1.59112012336517e+15,1,1,-3,0,0,0,-1,0
1.59112012336517e+15,-4,-7,-27,-13,-1,-1,-3,-3
1.59112012336687e+15,-3,8,48,16,-1,-1,-2,-6
1.59112012336687e+15,-1,-5,-27,-9,-2,-2,-1,-1
1.59112012336758e+15,-2,-5,-16,-9,-3,-3,0,-2
1.59112012336758e+15,0,3,15,9,0,0,-2,0
1.59112012336859e+15,0,2,10,-1,1,1,-1,1
1.59112012336859e+15,-6,-6,-22,-2,-2,-2,-3,-4
1.59112012338508e+15,0,-0,-1,-1,-1,-1,-1,-2
1.59112012338508e+15,0,-3,-10,-6,-3,-3,0,0
1.59112012338715e+15,-1,-0,-1,0,-2,-2,0,0
1.59112012338715e+15,0,-1,4,-6,0,0,-2,-1
1.59112012338948e+15,2,2,2,-1,1,1,-1,1
1.59112012338948e+15,0,-0,-5,1,-1,-1,0,0
1.59112012340628e+15,1,2,1,9,-1,-1,-2,0
1.59112012340628e+15,1,1,2,-6,1,1,0,1
1.59112012341323e+15,-2,-1,-3,2,-1,-1,-3,-3
1.59112012341323e+15,1,2,18,1,-2,-2,-3,0
1.59112012342836e+15,1,-3,-17,-6,-1,-1,0,0
1.59112012342836e+15,-2,-1,0,0,-2,-2,-1,-2
1.59112012343474e+15,-3,2,17,3,0,0,-1,-1
1.59112012343474e+15,-3,-0,-3,2,2,2,1,-1
1.59112012344942e+15,-2,-0,5,-6,1,1,-1,0
1.59112012344942e+15,1,2,2,4,0,0,-1,1
1.59112012349056e+15,0,-1,-6,-1,-1,-1,-1,-1
1.59112012349056e+15,0,-0,1,-1,0,0,-2,0
1.59112012349169e+15,0,-1,-1,0,-2,-2,0,2
1.59112012349169e+15,-1,-1,-5,-3,-2,-2,-1,0
1.59112012349169e+15,0,-1,-3,-4,-1,-1,-2,-2
1.59112012349169e+15,-1,-2,-4,-4,-2,-2,-1,-2
1.59112012349455e+15,-2,-1,-2,-3,-3,-3,-1,-4
1.59112012349455e+15,-1,-1,-10,-2,-1,-1,-1,0
1.59112012350322e+15,-2,5,27,8,-2,-2,0,0
1.59112012350322e+15,-1,-1,-6,-2,-1,-1,-1,1
1.591120123509e+15,-1,-1,-8,-3,-1,-1,-1,-1
1.591120123509e+15,-1,-2,-9,-4,-1,-1,-2,-2
1.59112012352666e+15,0,-1,1,-6,0,0,-2,-2
1.59112012352666e+15,-2,-0,0,1,0,0,-1,-1
1.59112012353164e+15,-1,-0,-1,1,0,0,-3,-2
1.59112012353164e+15,1,3,5,5,0,0,1,6
1.59112012354068e+15,-2,-2,-9,-4,-2,-2,0,-2
1.59112012354068e+15,-3,-1,-6,-2,0,0,-1,-3
1.59112012355503e+15,0,3,25,3,-3,-3,-1,-1
1.59112012355503e+15,-4,-3,-7,-3,-2,-2,-4,-6
1.59112012356316e+15,1,1,-1,0,0,0,0,-1
1.59112012356316e+15,-2,1,3,0,-1,-1,1,-1
1.59112012357702e+15,-1,-1,-6,-4,-2,-2,1,-1
1.59112012357702e+15,1,1,5,-2,0,0,0,0
1.59112012359342e+15,-3,-1,-3,1,-1,-1,-1,1
1.59112012359342e+15,-2,-2,-1,-2,-4,-4,-3,-1
1.59112012360039e+15,-2,-1,-3,2,-2,-2,-2,-2
1.59112012360039e+15,-2,-0,6,-1,-2,-2,0,-1
1.59112012360293e+15,1,-1,-9,-3,0,0,1,0
1.59112012360293e+15,0,1,2,0,-2,-2,2,2
1.59112012361409e+15,-2,-0,2,-3,1,1,-2,-3
1.59112012361409e+15,-2,-2,-6,-3,-2,-2,-3,5
1.59112012362307e+15,0,-1,0,-1,-4,-4,-1,2
1.59112012362307e+15,0,-2,-7,-3,-2,-2,-2,0
1.59112012363669e+15,1,-2,1,-3,-2,-2,-4,-5
1.59112012363669e+15,-8,-3,1,-1,-3,-3,-2,-5
1.59112012364625e+15,-3,-0,-2,-1,1,1,0,-1
1.59112012364625e+15,-1,1,6,4,0,0,0,-3
1.59112012366139e+15,-5,-0,-7,0,1,1,2,2
1.59112012366139e+15,0,-0,12,-4,0,0,-1,-3
1.59112012366667e+15,-5,-0,10,1,-1,-1,-5,-2
1.59112012366667e+15,-1,-2,-10,-6,-3,-3,0,0
1.59112012367506e+15,-1,-1,-4,-4,-1,-1,0,2
1.59112012367506e+15,1,-0,1,0,-2,-2,1,0
1.59112012368376e+15,0,-0,6,0,-1,-1,-1,-4
1.59112012368376e+15,-1,1,6,0,1,1,-1,-1
1.59112012369743e+15,-2,-0,4,2,-2,-2,-2,-1
1.59112012369743e+15,3,-0,-4,1,-2,-2,0,-1
1.59112012370567e+15,0,-2,-12,-3,-1,-1,-3,-1
1.59112012370567e+15,0,-0,3,-1,-2,-2,-2,0
1.59112012372099e+15,-1,-2,-11,-2,-1,-1,-2,1
1.59112012372099e+15,-1,-1,-6,0,1,1,-1,-3
1.59112012372253e+15,2,-0,-6,-1,0,0,2,0
1.59112012372253e+15,1,-1,3,0,-1,-1,-2,-5
1.59112012373482e+15,-7,-1,-6,-1,-2,-2,1,2
1.59112012373482e+15,4,-0,-3,-1,0,0,-1,1
1.5911201237432e+15,0,-2,-3,-1,-3,-3,-4,-3
1.5911201237432e+15,-3,-1,-3,1,0,0,-2,-3
1.59112012376566e+15,1,-2,-7,-2,-1,-1,-1,-2
1.59112012376566e+15,-4,-2,-3,-2,-2,-2,-1,-5
1.5911201237676e+15,-1,-1,-1,-4,-1,-1,0,1
1.5911201237676e+15,1,-0,-2,-3,0,0,-1,1
1.59112012378088e+15,0,-1,0,-1,-1,-1,-3,-4
1.59112012378088e+15,-1,-1,1,1,-1,-1,-1,0
1.59112012378188e+15,-2,-1,-3,0,0,0,-2,-5
1.59112012378188e+15,1,2,6,1,-2,-2,0,5
1.59112012379492e+15,2,-0,-1,-1,-1,-1,-2,0
1.59112012379492e+15,-6,-2,-3,-3,-2,-2,-1,0
1.59112012380304e+15,-2,-1,2,-3,-1,-1,-1,0
1.59112012380304e+15,-3,-2,-8,-2,-1,-1,-1,-4
1.59112012381695e+15,-2,-0,0,-1,0,0,-1,-2
1.59112012381695e+15,3,-0,1,-2,0,0,-4,-2
1.59112012382558e+15,-2,-1,-4,-2,0,0,-1,-2
1.59112012382558e+15,-1,-0,-2,-2,1,1,0,3
1.59112012384092e+15,3,-0,3,-1,-1,-1,1,-3
1.59112012384092e+15,-5,-2,-1,1,-3,-3,-3,-2
1.59112012384264e+15,-1,-0,-3,1,-3,-3,-1,-1
1.59112012384264e+15,-2,-1,-3,-1,0,0,-2,-1
1.59112012385466e+15,-4,-1,-2,-2,0,0,-1,-2
1.59112012385466e+15,-1,1,1,1,-1,-1,1,0
1.59112012386298e+15,-1,-0,2,-2,-1,-1,0,0
1.59112012386298e+15,-1,-2,-2,-1,-2,-2,-1,-3
1.59112012387643e+15,0,-0,-2,1,-1,-1,0,1
1.59112012387643e+15,0,-0,-1,-1,-1,-1,-1,0
1.59112012388623e+15,0,-1,-11,-2,0,0,-1,0
1.59112012388623e+15,-1,-2,1,-4,-1,-1,-2,-4
1.59112012390152e+15,-1,1,8,-1,0,0,-2,-1
1.59112012390152e+15,-2,-0,3,-2,0,0,0,0
1.59112012390253e+15,-3,-1,0,1,-1,-1,-3,0
1.59112012390253e+15,-4,-2,-11,-7,-1,-1,-2,-1
1.59112012392323e+15,0,-1,-3,1,-3,-3,-2,-2
1.59112012392323e+15,0,-3,-11,0,-3,-3,0,-2
1.59112012392965e+15,0,2,9,3,-1,-1,1,1
1.59112012392965e+15,1,3,8,4,3,3,1,-2
1.59112012393726e+15,1,4,0,3,1,1,1,-1
1.59112012393726e+15,-2,-1,0,-5,-4,-4,-1,-2
1.59112012394541e+15,-3,-7,-20,-15,-5,-5,-2,-1
1.59112012394541e+15,-3,-1,15,-2,-1,-1,-3,-1
1.59112012396107e+15,1,2,-7,4,2,2,0,-5
1.59112012396107e+15,3,3,-2,4,2,2,1,2
1.59112012396206e+15,-1,-0,5,4,-4,-4,-1,-2
1.59112012396206e+15,0,-3,-12,-7,-2,-2,0,1
1.59112012398303e+15,0,-1,8,-5,-1,-1,-3,-6
1.59112012398303e+15,-9,-9,-18,-4,-5,-5,-2,-3
1.59112012398502e+15,1,-2,-15,-4,-2,-2,-3,0
1.59112012398502e+15,1,5,23,1,0,0,2,1
1.59112012399668e+15,-7,-1,6,-5,2,2,-3,-3
1.59112012399668e+15,0,2,6,2,1,1,0,-1
1.59112012401198e+15,-2,-0,-5,5,1,1,3,-3
1.59112012401198e+15,-1,-1,-11,4,-2,-2,-1,-1
1.59112012402099e+15,-3,-3,-9,-4,-4,-4,-2,-2
1.59112012402099e+15,7,-3,-3,-8,-6,-6,-5,3
1.59112012402199e+15,4,3,14,-1,5,5,-6,-3
1.59112012402199e+15,-11,3,-2,8,11,11,-9,1
1.59112012404349e+15,-6,-0,-4,8,-7,-7,1,4
1.59112012404349e+15,-5,-1,-4,-2,1,1,6,-12
1.59112012404449e+15,5,-4,-13,-9,-3,-3,6,9
1.59112012404449e+15,4,-1,-10,-7,-1,-1,-2,-3
1.59112012405751e+15,2,-0,19,1,-6,-6,-7,2
1.59112012405751e+15,9,5,-3,3,5,5,5,3
1.59112012406554e+15,-14,2,17,5,-5,-5,-7,-7
1.59112012406554e+15,1,-3,-13,-4,0,0,1,-2
1.59112012408096e+15,-18,-8,-25,-7,0,0,-4,2
1.59112012408096e+15,-9,-2,14,-3,-3,-3,-3,-7
1.59112012408197e+15,12,4,6,6,5,5,-4,-2
1.59112012408197e+15,-1,2,-14,6,0,0,9,1
1.59112012410389e+15,20,7,-2,3,4,4,9,6
1.59112012410389e+15,-15,-2,10,-2,-1,-1,-6,-10
1.5911201241049e+15,5,-0,-7,-5,-5,-5,4,12
1.5911201241049e+15,13,-1,2,-4,-13,-13,-7,9
1.59112012411633e+15,-21,-13,-9,-3,1,1,-17,-23
1.59112012411633e+15,-15,6,-3,-3,3,3,26,16
1.59112012412626e+15,14,2,8,3,13,13,-7,-10
1.59112012412626e+15,-19,-10,-5,-5,-15,-15,-22,-7
1.59112012414894e+15,13,9,-4,-4,13,13,34,1
1.59112012414894e+15,4,2,11,6,-5,-5,-12,10
1.59112012415436e+15,22,6,-6,2,6,6,9,1
1.59112012415436e+15,-21,-7,7,5,-17,-17,-16,-11
1.59112012416329e+15,-11,-4,16,-2,9,9,-15,-21
1.59112012416329e+15,-10,-4,-19,-4,4,4,1,-4
1.59112012416929e+15,-5,-7,-1,-5,-11,-11,-32,-5
1.59112012416929e+15,29,5,0,-1,-9,-9,34,-7
1.59112012417673e+15,-37,-18,5,-4,-35,-35,-60,8
1.59112012417673e+15,37,27,-3,1,45,45,53,35
1.59112012418528e+15,-18,14,-10,5,32,32,84,-6
1.59112012418528e+15,1,1,17,-3,1,1,-5,-5
1.59112012420025e+15,8,-3,-13,0,-25,-25,-5,4
1.59112012420025e+15,23,-10,12,-3,-21,-21,-73,-4
1.59112012420219e+15,-43,-20,0,1,-18,-18,-41,-40
1.59112012420219e+15,20,8,21,3,-2,-2,-26,41
1.59112012422314e+15,22,2,-34,-1,13,13,8,5
1.59112012422314e+15,0,-0,-8,-13,-11,-11,-11,49
1.59112012422513e+15,12,14,14,-2,13,13,44,12
1.59112012422513e+15,-7,-0,-12,-2,-10,-10,30,4
1.5911201242371e+15,11,-11,16,1,-30,-30,-61,-21
1.5911201242371e+15,-1,11,4,4,38,38,36,-16
1.59112012424558e+15,-1,-4,11,-3,-16,-16,-31,20
1.59112012424558e+15,0,-0,-16,3,16,16,14,-19
1.59112012426031e+15,0,6,13,-4,1,1,17,11
1.59112012426031e+15,-6,-11,-47,8,-14,-14,-6,-20
1.59112012426231e+15,-1,1,8,-4,-6,-6,-5,7
1.59112012426231e+15,-16,-4,47,2,-8,-8,-18,-30
1.59112012428325e+15,13,5,-50,-1,15,15,33,10
1.59112012428325e+15,-19,-3,44,0,-17,-17,-5,-16
1.59112012428425e+15,0,-0,15,9,-7,-7,-9,3
1.59112012428425e+15,-3,-0,-14,-1,2,2,10,6
1.59112012429623e+15,5,10,16,11,0,0,17,4
1.59112012429623e+15,-3,-19,-3,1,-15,-15,-42,-73
1.59112012430625e+15,8,3,-31,-9,6,6,14,37
1.59112012430625e+15,-4,-2,-1,-6,1,1,4,-4
1.59112012432104e+15,-2,4,13,-1,5,5,8,2
1.59112012432104e+15,-9,-5,4,0,-6,-6,-11,-10
1.59112012432204e+15,-11,-13,-2,-3,-15,-15,-23,-30
1.59112012432204e+15,4,-7,-32,-13,5,5,-9,-1
1.59112012434414e+15,6,3,-1,-6,10,10,6,7
1.59112012434414e+15,-1,-0,1,-7,-9,-9,3,1
1.59112012434509e+15,-13,-4,-5,0,-2,-2,-8,-4
1.59112012434509e+15,7,5,14,3,4,4,-1,7
1.59112012435683e+15,-21,-10,0,-3,-14,-14,-14,-18
1.59112012435683e+15,-1,-18,-32,-22,-24,-24,-32,0
1.59112012436598e+15,0,16,9,14,47,47,33,-9
1.59112012436598e+15,0,4,-15,4,18,18,5,4
1.59112012438072e+15,0,4,15,-11,14,14,4,-2
1.59112012438072e+15,-4,-6,4,-3,-13,-13,-9,2
1.59112012438255e+15,-10,-5,-4,-6,-9,-9,-16,0
1.59112012438255e+15,22,12,9,28,1,1,-5,-2
1.5911201244038e+15,-25,-6,1,-1,-12,-12,-7,1
1.5911201244038e+15,-11,16,-3,38,20,20,29,10
1.5911201244048e+15,-11,-14,-16,1,-6,-6,-62,-15
1.5911201244048e+15,-3,7,-6,-8,1,1,53,22
1.59112012441735e+15,12,5,0,-7,9,9,12,8
1.59112012441735e+15,14,1,5,-13,-2,-2,1,4
1.59112012442535e+15,1,-8,8,-18,-13,-13,-5,-9
1.59112012442535e+15,-13,-10,-6,-7,-5,-5,-28,-12
1.59112012444071e+15,-4,-4,14,-6,-3,-3,-7,-7
1.59112012444071e+15,1,3,-20,3,11,11,9,-3
1.59112012444271e+15,-9,-9,1,-65,-5,-5,9,2
1.59112012444271e+15,-7,4,-19,62,-14,-14,-8,-1
1.59112012446356e+15,7,13,-5,24,21,21,14,7
1.59112012446356e+15,-1,-0,2,9,-9,-9,-10,1
1.59112012446978e+15,13,9,3,16,12,12,16,-1
1.59112012446978e+15,-3,-9,-4,-44,1,1,-3,4
1.59112012448632e+15,-1,-4,5,-10,-6,-6,-7,-4
1.59112012448632e+15,7,-2,1,-29,-4,-4,3,8
1.59112012448733e+15,-3,-11,7,-37,-18,-18,3,1
1.59112012448733e+15,-9,-8,-21,-16,0,0,-7,-10
1.5911201245087e+15,9,14,-10,51,6,6,5,2
1.5911201245087e+15,0,1,-1,-5,4,4,-1,2
1.59112012451006e+15,5,2,-11,29,-13,-13,-4,0
1.59112012451006e+15,-1,6,13,19,12,12,-2,-2
1.59112012452226e+15,13,10,11,6,9,9,12,7
1.59112012452226e+15,-9,2,6,23,1,1,-14,-16
1.59112012453065e+15,-3,3,-6,19,-15,-15,25,7
1.59112012453065e+15,-2,-14,-14,-43,-4,-4,-7,2
1.5911201245462e+15,-9,-15,-3,-32,-6,-6,-13,-10
1.5911201245462e+15,8,13,18,1,8,8,25,13
1.59112012454721e+15,0,3,-5,23,1,1,-7,-1
1.59112012454721e+15,3,-9,-2,-13,-12,-12,-27,-8
1.59112012456792e+15,-10,-12,-25,-43,-12,-12,18,-8
1.59112012456792e+15,-9,-6,17,17,2,2,-15,-7
1.59112012456992e+15,8,8,-2,10,0,0,9,10
1.59112012456992e+15,-4,20,10,39,37,37,14,-1
1.59112012458214e+15,-2,3,9,3,3,3,-4,-5
1.59112012458214e+15,-10,-19,-29,-22,-13,-13,-60,-12
1.59112012459799e+15,-1,6,-2,-3,-9,-9,51,5
1.59112012459799e+15,2,5,11,-2,10,10,16,4
1.59112012460533e+15,-10,-14,-9,-8,-24,-24,-12,-15
1.59112012460533e+15,3,-2,-1,-16,5,5,-1,1
1.59112012460733e+15,-1,-3,0,-3,-3,-3,-15,0
1.59112012460733e+15,2,-12,-10,-23,-18,-18,-12,-9
1.59112012462867e+15,0,8,6,8,12,12,16,5
1.59112012462867e+15,4,-0,-2,-1,-6,-6,2,-3
1.59112012462993e+15,-14,-1,1,1,8,8,-13,5
1.59112012462993e+15,2,-0,-14,-4,-2,-2,14,3
1.59112012464168e+15,-7,-16,-48,-30,-3,-3,-19,-6
1.59112012464168e+15,-5,7,84,-21,-7,-7,9,-1
1.59112012465069e+15,15,8,-1,56,-1,-1,-8,-5
1.59112012465069e+15,-10,9,37,23,2,2,-9,-4
1.59112012466595e+15,5,2,-1,15,-4,-4,-6,1
1.59112012466595e+15,-2,8,17,4,1,1,13,3
1.59112012466696e+15,8,-10,-40,-33,2,2,-6,0
1.59112012466696e+15,-7,4,92,-15,-13,-13,-16,-3
1.59112012468882e+15,-3,-1,-23,14,0,0,-4,1
1.59112012468882e+15,6,1,-26,-7,4,4,18,9
1.59112012469001e+15,3,-3,4,-7,0,0,-15,-5
1.59112012469001e+15,5,-4,-45,5,-1,-1,-4,0
1.5911201247027e+15,3,3,8,-10,-1,-1,4,9
1.5911201247027e+15,-3,-2,-25,9,5,5,2,-1
1.591120124711e+15,-10,-3,-19,5,3,3,-7,-2
1.591120124711e+15,-6,-8,-23,-11,-6,-6,-4,-6
1.59112012472534e+15,3,10,43,4,3,3,2,2
1.59112012472534e+15,-1,10,56,23,-4,-4,1,-1
1.59112012472734e+15,1,1,16,-5,0,0,-5,2
1.59112012472734e+15,-3,-12,-62,-13,-3,-3,0,-6
1.59112012474852e+15,1,1,2,6,0,0,-3,-8
1.59112012474852e+15,-12,-10,16,-18,-13,-13,-11,-19
1.59112012474952e+15,8,-4,-22,-26,-5,-5,-3,20
1.59112012474952e+15,1,-7,-17,-8,-4,-4,-3,-7
1.59112012476206e+15,-10,3,2,17,4,4,3,1
1.59112012476206e+15,3,-0,-45,4,6,6,10,3
1.59112012477055e+15,-4,10,63,11,0,0,0,-8
1.59112012477055e+15,4,3,23,16,-7,-7,-8,-4
1.59112012478625e+15,-5,-13,-38,-24,-5,-5,-5,1
1.59112012478625e+15,0,3,1,1,3,3,10,5
1.59112012478755e+15,-5,-6,-19,-7,-1,-1,-5,-6
1.59112012478755e+15,1,-1,-7,-2,-4,-4,3,4
1.59112012480805e+15,1,1,0,2,2,2,3,-3
1.59112012480805e+15,-12,-4,1,-4,-6,-6,0,-5
1.59112012481005e+15,5,-5,-26,-6,-5,-5,-11,9
1.59112012481005e+15,-17,-16,-8,-15,-22,-22,-16,-28
1.59112012482207e+15,7,16,9,14,62,62,16,-12
1.59112012482207e+15,23,16,-50,1,2,2,46,64
1.59112012483099e+15,7,6,64,1,2,2,-14,-16
1.59112012483099e+15,-12,3,14,3,-4,-4,11,2
1.59112012484581e+15,9,-1,3,2,-8,-8,-8,-5
1.59112012484581e+15,8,-1,-2,1,1,1,-5,-7
1.59112012484682e+15,7,1,2,3,-1,-1,-6,-3
1.59112012484682e+15,5,-2,13,0,-5,-5,-40,10
1.59112012486663e+15,-18,-5,0,-6,-7,-7,23,-20
1.59112012486663e+15,14,3,-6,4,12,12,9,-9
1.59112012487566e+15,-41,-18,-28,-16,-19,-19,2,-10
1.59112012487566e+15,10,5,1,6,0,0,5,4
1.59112012488212e+15,-5,-10,1,-12,-22,-22,-25,2
1.59112012488212e+15,12,-16,-8,-8,-18,-18,-60,-23
1.5911201248915e+15,-7,15,-18,-2,22,22,75,20
1.5911201248915e+15,-1,11,14,3,17,17,17,14
1.59112012492081e+15,6,6,31,5,-10,-10,-4,7
1.59112012492081e+15,-8,-0,7,13,2,2,-11,-9
1.59112012492257e+15,-17,-17,-37,-14,-3,-3,-26,-25
1.59112012492257e+15,6,5,-3,-3,7,7,13,9
1.5911201249286e+15,-1,-3,-12,-7,-9,-9,-3,12
1.5911201249286e+15,-16,-9,8,-7,-11,-11,-11,-17
1.59112012492959e+15,12,11,24,17,2,2,2,12
1.59112012492959e+15,-11,-9,-30,-12,1,1,-3,-16
1.59112012494218e+15,4,-7,2,-30,-11,-11,-8,11
1.59112012494218e+15,-9,-0,-20,3,1,1,10,4
1.5911201249512e+15,15,4,-1,8,1,1,-5,-2
1.5911201249512e+15,-2,3,11,11,-1,-1,-5,-6
1.59112012496599e+15,2,2,5,13,-3,-3,-10,-5
1.59112012496599e+15,-2,-1,-11,-15,2,2,14,5
1.59112012496699e+15,4,-3,6,-5,-9,-9,-9,0
1.59112012496699e+15,-2,-10,3,-32,-7,-7,-6,-4
1.59112012498874e+15,-2,-3,-9,-1,-3,-3,1,4
1.59112012498874e+15,-5,8,-6,26,4,4,4,6
1.59112012499001e+15,-1,1,-6,12,0,0,-8,-5
1.59112012499001e+15,0,2,-12,8,1,1,5,3
1.59112012500235e+15,2,1,-1,-8,0,0,3,3
1.59112012500235e+15,-6,-6,1,-19,-1,-1,-4,-2
1.59112012501747e+15,0,-7,17,-21,-7,-7,-9,-8
1.59112012501747e+15,-7,-11,-26,-31,-4,-4,-2,0
1.59112012502547e+15,5,5,4,7,4,4,2,5
1.59112012502547e+15,-8,16,4,69,6,6,4,-2
1.59112012503237e+15,-9,-9,-9,-22,-10,-10,-3,-4
1.59112012503237e+15,-3,-9,21,-42,-1,-1,-3,-2
1.59112012504874e+15,-7,1,-19,22,4,4,-3,-6
1.59112012504874e+15,0,7,7,25,-10,-10,0,0
1.59112012505001e+15,2,13,-1,16,30,30,12,5
1.59112012505001e+15,-1,-4,7,10,-17,-17,-11,-6
1.59112012506213e+15,-14,-26,-10,-60,-17,-17,-14,-15
1.59112012506213e+15,-5,-17,-16,-38,-1,-1,-5,-14
1.59112012507073e+15,11,17,-1,38,9,9,11,16
1.59112012507073e+15,8,21,1,37,20,20,14,9
1.59112012508563e+15,7,12,11,27,1,1,11,7
1.59112012508563e+15,-6,-20,-11,-24,-20,-20,-40,-21
1.59112012509168e+15,-5,-8,-7,-26,-11,-11,19,3
1.59112012509168e+15,3,3,1,2,3,3,1,11
1.59112012510887e+15,-3,1,-8,0,1,1,6,1
1.59112012510887e+15,6,-1,5,-21,2,2,7,-1
1.59112012510988e+15,-7,-7,5,4,1,1,-32,-23
1.59112012510988e+15,1,1,0,9,-4,-4,-14,7
1.59112012512242e+15,0,10,1,5,11,11,48,-11
1.59112012512242e+15,-7,-16,2,-4,-19,-19,-85,4
1.59112012513072e+15,26,29,-7,-6,32,32,101,51
1.59112012513072e+15,-14,-10,-8,4,-9,-9,-8,-39
1.59112012514506e+15,7,3,9,4,0,0,-14,14
1.59112012514506e+15,-11,8,-3,-4,16,16,41,9
1.59112012515308e+15,-19,-19,-22,-6,-21,-21,-53,-13
1.59112012515308e+15,11,4,-8,3,3,3,12,6
1.5911201251679e+15,7,-5,-5,5,0,0,-13,-28
1.5911201251679e+15,-5,4,3,-1,-4,-4,12,21
1.5911201251699e+15,-42,-26,-33,-13,-18,-18,-35,-33
1.5911201251699e+15,0,2,3,-2,2,2,8,1
1.59112012518226e+15,-2,-3,0,-4,-4,-4,-11,1
1.59112012518226e+15,24,13,13,7,8,8,14,9
1.59112012519072e+15,0,-9,-24,-10,-6,-6,-12,-6
1.59112012519072e+15,-2,-0,5,-1,-1,-1,3,3
1.59112012520543e+15,-11,-3,-3,0,-1,-1,-15,-2
1.59112012520543e+15,8,4,7,-10,2,2,18,-2
1.59112012521204e+15,5,5,19,13,-2,-2,-12,1
1.59112012521204e+15,9,1,-9,-5,-6,-6,3,13
1.59112012522869e+15,-14,3,3,11,4,4,-2,4
1.59112012522869e+15,-2,1,-1,3,3,3,6,-6
1.59112012523002e+15,6,-1,15,-3,-7,-7,-10,-6
1.59112012523002e+15,-3,-1,6,1,-2,-2,-9,1
1.59112012524156e+15,2,1,18,-4,-7,-7,-2,5
1.59112012524156e+15,-5,-6,-27,-8,-2,-2,6,-4
1.59112012525687e+15,2,3,20,3,-4,-4,-6,0
1.59112012525687e+15,-5,-3,-19,3,1,1,2,-9
1.59112012526519e+15,-1,-2,-12,-3,-4,-4,3,4
1.59112012526519e+15,0,1,16,-3,0,0,0,-10
1.59112012527252e+15,7,3,-2,3,-1,-1,4,7
1.59112012527252e+15,-1,1,10,-1,-1,-1,-2,-4
1.59112012528807e+15,3,1,3,-2,-3,-3,-2,4
1.59112012528807e+15,-3,-0,-7,-5,1,1,3,4
1.59112012529003e+15,-1,-1,2,1,-1,-1,1,-7
1.59112012529003e+15,-1,2,5,2,1,1,0,0
1.59112012531107e+15,-3,-3,-5,-1,-2,-2,-7,-4
1.59112012531107e+15,1,1,1,0,-1,-1,1,0
1.59112012531208e+15,-1,-1,5,-1,-2,-2,-3,-5
1.59112012531208e+15,-8,-2,1,-2,0,0,-3,-4
1.59112012532545e+15,3,-1,1,-5,-4,-4,-1,5
1.59112012532545e+15,-5,-1,4,1,0,0,-1,-8
1.59112012533967e+15,6,8,39,6,0,0,-2,6
1.59112012533967e+15,-7,-17,-68,-16,-4,-4,-7,-5
1.59112012534858e+15,-2,-2,-12,-5,2,2,-3,-2
1.59112012534858e+15,-2,1,10,-7,-1,-1,4,9
1.59112012534958e+15,-1,-2,6,-2,-2,-2,-5,-7
1.59112012534958e+15,0,3,14,2,0,0,3,2
1.59112012537059e+15,1,-1,3,2,-3,-3,-1,-2
1.59112012537059e+15,1,5,14,8,2,2,0,-5
1.59112012537247e+15,-3,-4,-22,-2,-2,-2,-2,-1
1.59112012537247e+15,1,2,-3,1,2,2,1,2
1.59112012538434e+15,2,2,11,3,1,1,0,-2
1.59112012538434e+15,-3,-7,-7,-17,-3,-3,-3,-3
1.5911201253931e+15,-4,-3,-26,0,4,4,-4,-6
1.5911201253931e+15,2,6,30,9,0,0,0,0
1.5911201254087e+15,-3,-7,-30,-9,-3,-3,-4,-2
1.5911201254087e+15,-4,-6,-32,-4,-1,-1,-2,-1
1.59112012541006e+15,-1,-8,-37,-13,-1,-1,-3,-2
1.59112012541006e+15,-1,7,21,10,1,1,1,0
1.59112012543098e+15,3,-0,-14,-2,-1,-1,-1,3
1.59112012543098e+15,-4,-1,5,1,-2,-2,-2,-3
1.59112012543298e+15,0,1,10,-3,-1,-1,0,1
1.59112012543298e+15,-5,6,19,16,-1,-1,1,8
1.5911201254441e+15,-2,2,10,-1,2,2,1,0
1.5911201254441e+15,-2,-5,-26,-2,-2,-2,0,-5
1.591120125461e+15,-2,1,9,8,-4,-4,1,-7
1.591120125461e+15,-1,-4,-13,-9,-2,-2,1,-4
1.59112012546839e+15,-3,1,8,-2,-3,-3,1,1
1.59112012546839e+15,-5,-4,-8,-14,0,0,-1,-6
1.59112012546935e+15,-1,2,7,-2,-2,-2,2,5
1.59112012546935e+15,-3,-4,-11,-5,-4,-4,-1,-5
1.59112012549189e+15,-5,-10,-50,-15,-4,-4,2,3
1.59112012549189e+15,3,10,55,4,1,1,2,-1
1.59112012549287e+15,-5,1,33,4,-2,-2,-4,-11
1.59112012549287e+15,3,-0,7,-4,1,1,-2,-3
1.59112012550503e+15,-2,3,28,5,0,0,-4,-8
1.59112012550503e+15,0,-2,-33,8,1,1,1,9
1.59112012551312e+15,6,-0,-2,0,-4,-4,-4,0
1.59112012551312e+15,17,-0,-11,-8,-1,-1,-4,3
1.59112012552865e+15,-8,3,8,9,3,3,4,-2
1.59112012552865e+15,1,-2,-16,-4,1,1,-3,0
1.59112012553001e+15,-1,4,18,5,2,2,1,-1
1.59112012553001e+15,0,-7,-38,-3,-3,-3,-1,-2
1.59112012555067e+15,6,3,1,8,-1,-1,1,4
1.59112012555067e+15,-6,-4,-3,-6,-2,-2,-2,-6
1.59112012555704e+15,3,1,11,-4,-4,-4,0,7
1.59112012555704e+15,-4,6,9,7,10,10,-4,10
1.59112012556403e+15,3,-11,-46,-13,-12,-12,2,-2
1.59112012556403e+15,5,6,22,13,-3,-3,2,-3
1.59112012557973e+15,-9,8,77,5,-6,-6,-2,-5
1.59112012557973e+15,-14,-20,-61,-30,-5,-5,-5,-10
1.59112012558894e+15,11,5,20,3,7,7,-4,-3
1.59112012558894e+15,-7,-7,-41,-8,1,1,-2,-1
1.59112012558994e+15,-7,2,17,4,-2,-2,-1,-2
1.59112012558994e+15,-4,9,51,13,-2,-2,0,0
1.59112012561004e+15,-5,-1,18,-6,-5,-5,-7,-1
1.59112012561004e+15,1,-1,-20,-4,0,0,5,4
1.59112012561843e+15,9,-7,-33,-17,2,2,-5,-6
1.59112012561843e+15,2,11,30,17,4,4,-2,12
1.59112012563369e+15,-4,-8,-30,-11,1,1,0,-7
1.59112012563369e+15,2,3,12,-2,-3,-3,-1,6
1.59112012563464e+15,3,-3,-30,-4,6,6,-1,-1
1.59112012563464e+15,4,1,-13,14,-2,-2,2,-9
1.59112012564877e+15,-13,-0,43,-13,-4,-4,-8,-6
1.59112012564877e+15,-3,-4,9,-15,-5,-5,-5,-1
1.59112012564995e+15,-6,-4,-19,-2,1,1,0,-4
1.59112012564995e+15,0,-5,0,-14,-4,-4,-1,-4
1.59112012567108e+15,3,-4,-16,-21,1,1,0,4
1.59112012567108e+15,-9,8,21,23,0,0,3,-2
1.5911201256724e+15,5,-2,-14,8,-6,-6,-6,-1
1.5911201256724e+15,10,10,16,8,7,7,14,5
1.59112012568412e+15,8,5,14,11,-1,-1,1,5
1.59112012568412e+15,-31,-8,1,-11,2,2,-3,-12
1.59112012569306e+15,-9,-2,-1,-2,-1,-1,-6,0
1.59112012569306e+15,1,1,12,2,-4,-4,4,-4
1.591120125709e+15,1,-7,26,-34,-11,-11,-1,-3
1.591120125709e+15,9,-11,-81,-14,-1,-1,-3,2
1.59112012571001e+15,-1,13,23,31,5,5,2,2
1.59112012571001e+15,-6,-4,-47,8,0,0,-6,-5
1.59112012573129e+15,-6,10,21,35,3,3,-2,1
1.59112012573129e+15,4,4,22,29,-7,-7,-1,-7
1.59112012573229e+15,-8,-17,-30,-73,-2,-2,-1,-4
1.59112012573229e+15,8,-4,-3,-27,-4,-4,-1,1
1.59112012574389e+15,-8,3,1,17,-1,-1,1,1
1.59112012574389e+15,7,6,20,11,-1,-1,0,4
1.59112012575361e+15,9,2,-3,15,-3,-3,0,1
1.59112012575361e+15,-5,-1,30,-18,-1,-1,-2,-1
1.5911201257687e+15,-11,-23,-57,-52,-10,-10,-9,-7
1.5911201257687e+15,5,7,27,8,4,4,-2,0
1.59112012577003e+15,7,10,3,24,8,8,5,5
1.59112012577003e+15,-4,-1,3,7,-12,-12,-4,-3
1.591120125791e+15,1,9,18,31,1,1,-4,-4
1.591120125791e+15,1,-3,-3,-16,4,4,8,0
1.591120125792e+15,-5,-5,-5,-15,2,2,2,-5
1.591120125792e+15,-3,1,2,4,3,3,2,-1
1.59112012580457e+15,0,4,5,4,4,4,-5,1
1.59112012580457e+15,-2,-2,0,13,-7,-7,-7,-5
1.59112012581313e+15,-8,-2,-9,3,0,0,-17,7
1.59112012581313e+15,-7,-1,18,9,-11,-11,9,-13
1.5911201258287e+15,0,-3,-6,-9,-10,-10,5,1
1.5911201258287e+15,5,-4,-5,-16,-9,-9,-4,0
1.59112012582993e+15,0,-6,-10,-11,-5,-5,5,-2
1.59112012582993e+15,-6,-8,-6,-26,6,6,-11,-2
1.591120125851e+15,3,13,11,28,14,14,1,-1
1.591120125851e+15,3,8,6,4,4,4,11,8
1.59112012585262e+15,0,3,-2,20,-4,-4,-1,0
1.59112012585262e+15,-5,-2,-14,8,-4,-4,-7,-1
1.59112012586508e+15,-1,-9,-6,-25,-7,-7,0,-6
1.59112012586508e+15,-1,-6,9,-9,-1,-1,-7,-4
1.59112012587323e+15,1,-4,-10,-31,4,4,3,-1
1.59112012587323e+15,0,18,3,48,11,11,5,2
1.59112012588864e+15,-1,5,3,23,-3,-3,0,4
1.59112012588864e+15,-2,-1,1,9,-3,-3,-15,-8
1.59112012589005e+15,-3,-5,-5,-4,-4,-4,-5,-8
1.59112012589005e+15,-5,-9,2,-24,-5,-5,1,-5
1.59112012591092e+15,0,-1,-8,-1,2,2,-1,-3
1.59112012591092e+15,-1,-0,1,-14,6,6,8,5
1.59112012591192e+15,2,-2,-3,11,-14,-14,-9,-6
1.59112012591192e+15,-1,-0,3,0,0,0,-10,0
1.59112012592493e+15,1,4,-2,2,4,4,24,5
1.59112012592493e+15,-3,-4,0,-7,6,6,-21,-5
1.59112012593324e+15,-1,-2,-2,0,4,4,-14,-3
1.59112012593324e+15,3,10,-2,-4,23,23,42,4
1.59112012594816e+15,-1,-1,0,-6,-1,-1,7,2
1.59112012594816e+15,-2,-4,-5,-14,0,0,1,-1
1.59112012595544e+15,-1,-0,3,0,-8,-8,-3,8
1.59112012595544e+15,-3,-3,2,1,-9,-9,-13,-4
1.59112012597097e+15,-3,-3,-6,4,2,2,-13,-6
1.59112012597097e+15,2,1,0,-2,-15,-15,7,11
1.59112012597198e+15,-3,-0,-2,-12,32,32,-7,-2
1.59112012597198e+15,-1,7,0,4,-1,-1,21,4
1.59112012598412e+15,0,12,12,28,3,3,19,5
1.59112012598412e+15,-1,-5,-5,-2,1,1,-21,-7
1.59112012599306e+15,1,-7,-6,-1,-21,-21,-1,-6
1.59112012599306e+15,-1,-13,-11,-28,-15,-15,-8,-10
1.59112012600872e+15,0,-2,1,0,8,8,-42,8
1.59112012600872e+15,-3,18,1,4,38,38,77,-1
1.59112012600972e+15,1,6,4,-3,7,7,25,6
1.59112012600972e+15,-11,-13,-9,-8,-28,-28,-16,-11
1.59112012603096e+15,3,-14,-3,-7,-22,-22,-58,-9
1.59112012603096e+15,-3,-6,5,1,-22,-22,-19,-6
1.59112012603196e+15,-2,6,-6,2,29,29,10,3
1.59112012603196e+15,1,3,5,13,11,11,-19,-4
1.59112012604439e+15,-2,-5,-3,-10,-18,-18,-3,2
1.59112012604439e+15,0,-1,-1,-1,-4,-4,-11,-1
1.59112012606848e+15,1,8,2,-3,19,19,30,0
1.59112012606848e+15,1,-4,-4,-2,-6,-6,-3,6
1.59112012606848e+15,2,4,-2,10,2,2,9,-4
1.59112012606848e+15,-1,5,1,14,-1,-1,-5,1
1.59112012607508e+15,-1,-15,5,2,-41,-41,-73,1
1.59112012607508e+15,4,2,3,-11,15,15,9,-7
1.59112012609175e+15,1,4,-6,-16,6,6,37,18
1.59112012609175e+15,-7,5,-7,14,-10,-10,35,-8
1.59112012609276e+15,6,-11,-5,4,-46,-46,-33,-9
1.59112012609276e+15,-11,10,-9,-16,29,29,67,23
1.59112012610503e+15,8,-7,-4,-11,-19,-19,-3,-9
1.59112012610503e+15,-23,-12,-3,-11,-9,-9,-34,2
1.59112012611391e+15,-4,-4,-2,-1,-1,-1,-13,-8
1.59112012611391e+15,-8,-3,6,2,4,4,-27,-3
1.59112012612791e+15,-4,-3,-8,-4,2,2,-15,-2
1.59112012612791e+15,13,1,8,-6,-7,-7,-13,2
1.59112012613409e+15,4,10,3,1,22,22,28,2
1.59112012613409e+15,4,-11,0,19,-31,-31,-81,4
1.5911201261506e+15,14,-3,4,6,26,26,-58,-24
1.5911201261506e+15,-9,11,-5,-2,-19,-19,76,36
1.59112012615252e+15,-3,-0,-16,-17,25,25,40,-12
1.59112012615252e+15,-19,-6,-6,-4,-19,-19,17,-4
1.59112012616504e+15,-10,-10,-2,-6,-19,-19,-26,-7
1.59112012616504e+15,12,-5,-1,-5,18,18,-51,-17
1.59112012617315e+15,5,4,3,14,-20,-20,2,12
1.59112012617315e+15,10,-0,0,2,-1,-1,-7,0
1.59112012618813e+15,-12,-5,-1,-9,15,15,-26,-11
1.59112012618813e+15,13,12,1,3,15,15,37,7
1.59112012620216e+15,-24,-3,-4,3,-20,-20,17,-2
1.59112012620216e+15,6,5,6,8,22,22,-23,-14
1.591120126211e+15,-2,-15,1,-11,-9,-9,-44,-10
1.591120126211e+15,2,14,2,-29,27,27,74,30
1.591120126212e+15,-2,-1,6,20,-46,-46,-16,-12
1.591120126212e+15,-5,6,-12,9,51,51,-6,-9
1.59112012623319e+15,20,-0,5,5,-40,-40,1,19
1.59112012623319e+15,-5,-0,-5,-4,-3,-3,37,-7
1.59112012623418e+15,-7,12,2,13,39,39,32,-3
1.59112012623418e+15,-4,-0,2,-1,-9,-9,0,-1
1.59112012624771e+15,-6,1,-4,7,3,3,2,-1
1.59112012624771e+15,-4,-20,2,-14,-7,-7,-79,-11
1.59112012625482e+15,4,-5,-4,-10,-9,-9,-21,2
1.59112012625482e+15,4,-2,2,-1,-20,-20,-3,1
1.59112012627162e+15,-6,13,0,-2,34,34,44,5
1.59112012627162e+15,0,-17,7,-19,-28,-28,-67,1
1.59112012627263e+15,3,4,-3,-3,44,44,-34,-6
1.59112012627263e+15,-47,1,-9,12,-26,-26,58,14
1.59112012630101e+15,-4,9,-1,26,-14,-14,32,-10
1.59112012630101e+15,-6,-16,-9,9,-22,-22,-46,-28
1.59112012630188e+15,14,-1,3,-19,19,19,6,7
1.59112012630188e+15,25,-0,-3,-32,28,28,-5,7
1.59112012630815e+15,-7,4,1,8,7,7,-11,1
1.59112012630815e+15,-25,-5,-5,10,1,1,3,-32
1.59112012631491e+15,5,14,4,10,9,9,28,21
1.59112012631491e+15,14,-5,2,8,-27,-27,-23,-2
1.59112012633096e+15,-9,-10,-15,-42,1,1,19,-8
1.59112012633096e+15,16,7,11,11,10,10,-18,1
1.59112012633201e+15,-5,-5,-2,9,-18,-18,-15,-1
1.59112012633201e+15,0,7,6,21,26,26,-14,-7
1.59112012635392e+15,-12,-36,-16,-11,-74,-74,-89,-9
1.59112012635392e+15,-9,6,-19,-44,17,17,110,-8
1.59112012635503e+15,3,-3,1,-4,-24,-24,19,6
1.59112012635503e+15,15,-3,-1,5,6,6,-52,-5
1.59112012636736e+15,-8,10,11,0,31,31,50,-12
1.59112012636736e+15,6,14,-10,35,18,18,-30,9
1.59112012637501e+15,-6,6,-1,18,1,1,20,3
1.59112012637501e+15,2,-23,-7,-67,-27,-27,-34,-10
1.59112012639067e+15,4,-0,9,15,-12,-12,-8,0
1.59112012639067e+15,-2,1,7,34,-19,-19,-21,2
1.59112012639746e+15,-4,-6,-9,-9,18,18,-16,-3
1.59112012639746e+15,4,6,7,-39,22,22,41,5
1.59112012641285e+15,4,9,-7,29,-4,-4,9,2
1.59112012641285e+15,26,-3,-4,6,-30,-30,-30,15
1.59112012641461e+15,-9,11,10,32,20,20,-1,-2
1.59112012641461e+15,-7,-17,-49,-28,-13,-13,24,-2
1.59112012643634e+15,-42,-11,18,-31,14,14,-8,-18
1.59112012643634e+15,5,1,33,14,-4,-4,-11,-4
1.5911201264374e+15,5,-7,-27,-22,-25,-25,-3,2
1.5911201264374e+15,1,10,31,65,-26,-26,-17,-12
1.59112012645126e+15,18,26,0,10,65,65,32,17
1.59112012645126e+15,5,-2,-31,-12,-4,-4,10,20
1.59112012645225e+15,5,9,24,9,-2,-2,-7,-1
1.59112012645225e+15,3,3,46,14,-16,-16,-24,-10
1.5911201264748e+15,-9,-0,-21,24,-16,-16,7,9
1.5911201264748e+15,-5,-2,19,-4,13,13,-14,-4
1.59112012647983e+15,-19,-21,-31,-42,-11,-11,-9,-5
1.59112012647983e+15,11,-11,-31,-16,-30,-30,1,-2
1.59112012648752e+15,-2,2,10,-10,9,9,25,4
1.59112012648752e+15,-5,-8,4,-39,0,0,-11,-7
1.59112012649531e+15,-4,6,13,19,11,11,-9,-5
1.59112012649531e+15,-4,10,-2,28,7,7,13,10
1.59112012651224e+15,14,-5,-24,-21,4,4,-2,-7
1.59112012651224e+15,2,9,8,3,11,11,20,0
1.59112012651707e+15,-5,-5,16,-13,1,1,-8,-9
1.59112012651707e+15,-3,-4,-8,6,-29,-29,4,2
1.59112012653265e+15,5,-3,7,-11,5,5,-15,-3
1.59112012653265e+15,-7,-6,-4,-10,-9,-9,-15,-8
1.5911201265406e+15,1,3,-34,23,7,7,6,-3
1.5911201265406e+15,0,7,19,-19,13,13,35,12
1.59112012654751e+15,-4,-4,-8,3,-10,-10,-1,-9
1.59112012654751e+15,-15,-5,8,26,-14,-14,-54,-3
1.59112012655568e+15,4,-4,6,-18,3,3,14,-8
1.59112012655568e+15,-5,-6,-18,-14,5,5,-14,-10
1.59112012656955e+15,10,5,5,2,-8,-8,7,18
1.59112012656955e+15,0,16,3,23,14,14,62,-9
1.59112012657878e+15,7,-3,-17,-8,-34,-34,12,28
1.59112012657878e+15,-3,-9,-9,-12,3,3,-17,-4
1.59112012659298e+15,5,6,13,-35,30,30,9,1
1.59112012659298e+15,-6,-1,-6,26,-24,-24,-2,-2
1.59112012659448e+15,0,2,5,-5,42,42,-28,-2
1.59112012659448e+15,-14,-2,14,6,-20,-20,-35,-9
1.59112012660671e+15,-2,9,2,9,-4,-4,53,3
1.59112012660671e+15,7,-13,-11,-6,-14,-14,-52,-9
1.5911201266161e+15,-10,-2,-7,-8,-1,-1,46,-9
1.5911201266161e+15,-3,-5,-6,3,-4,-4,-10,0
1.59112012663039e+15,5,-0,-9,-11,13,13,5,5
1.59112012663039e+15,-20,-15,-3,-36,27,27,-57,-34
1.5911201266319e+15,1,-24,3,5,-47,-47,-106,-11
1.5911201266319e+15,14,25,4,-4,12,12,107,31
1.59112012665384e+15,-23,-10,-14,-22,24,24,-10,-7
1.59112012665384e+15,12,12,1,38,-13,-13,16,12
1.59112012665497e+15,-12,-21,-14,-13,-39,-39,-43,-23
1.59112012665497e+15,0,-0,-37,0,26,26,1,8
1.59112012666709e+15,9,15,33,18,-16,-16,1,11
1.59112012666709e+15,5,2,25,0,23,23,27,6
1.59112012667537e+15,-7,-11,3,-47,-1,-1,3,-20
1.59112012667537e+15,10,10,1,13,10,10,14,5
1.59112012669078e+15,-14,-6,-31,20,-26,-26,-4,-3
1.59112012669078e+15,5,11,-11,17,10,10,3,12
1.59112012669178e+15,10,-3,10,4,-31,-31,-16,1
1.59112012669178e+15,-11,-12,-20,-50,8,8,37,-4
1.59112012671284e+15,14,19,11,28,26,26,11,11
1.59112012671284e+15,5,16,5,9,15,15,15,10
1.59112012671478e+15,9,17,43,17,0,0,37,16
1.59112012671478e+15,-12,-13,1,6,-18,-18,-52,-18
1.59112012672719e+15,-4,-13,2,-15,-16,-16,-12,-8
1.59112012672719e+15,-16,-31,-37,-53,-24,-24,-45,-17
1.59112012673561e+15,-9,14,-5,24,38,38,6,11
1.59112012673561e+15,7,9,20,15,1,1,4,-2
1.59112012675051e+15,5,6,6,30,-11,-11,3,-3
1.59112012675051e+15,6,-5,-8,-26,-20,-20,17,13
1.59112012675246e+15,4,5,8,22,3,3,-16,-5
1.59112012675246e+15,-7,-16,2,-1,-23,-23,-77,-7
1.59112012677385e+15,-37,-5,-20,-38,20,20,77,-4
1.59112012677385e+15,-16,-13,-11,-6,-20,-20,-18,-14
1.59112012677485e+15,0,-3,-6,-22,7,7,2,0
1.59112012677485e+15,10,10,2,4,11,11,24,10
1.59112012678756e+15,16,2,20,27,-20,-20,-39,-5
1.59112012678756e+15,-11,-9,-26,-14,4,4,-4,-8
1.59112012679562e+15,-10,-3,-14,-4,-4,-4,8,5
1.59112012679562e+15,-7,-10,9,-8,5,5,-36,-23
1.59112012681008e+15,5,-9,-7,-3,-4,-4,-68,2
1.59112012681008e+15,2,15,8,-4,6,6,92,1
1.59112012681841e+15,14,3,-8,2,-6,-6,8,10
1.59112012681841e+15,-9,6,9,7,14,14,4,6
1.59112012683353e+15,1,-10,-1,-9,-13,-13,-19,-13
1.59112012683353e+15,-3,-3,14,15,15,15,-63,-18
1.59112012684072e+15,-7,-3,-13,-9,-29,-29,36,0
1.59112012684072e+15,7,5,-5,0,10,10,12,13
1.59112012684694e+15,-2,-1,-4,-7,-5,-5,6,1
1.59112012684694e+15,3,4,0,-5,4,4,16,10
1.5911201268557e+15,-9,-1,7,4,6,6,-2,-24
1.5911201268557e+15,-2,-4,-2,3,-5,-5,-22,-6
1.59112012687927e+15,12,1,-8,-1,-2,-2,0,2
1.59112012687927e+15,-3,-3,2,3,-7,-7,-10,-7
1.59112012688028e+15,-12,-6,1,-1,7,7,-38,-4
1.59112012688028e+15,-1,4,-5,6,4,4,33,-15
1.59112012689294e+15,0,3,-1,-5,-8,-8,33,11
1.59112012689294e+15,6,1,2,-9,-2,-2,3,6
1.59112012689489e+15,4,4,2,5,6,6,3,2
1.59112012689489e+15,-5,-1,-1,5,0,0,-12,0
1.59112012690746e+15,-3,-4,2,-2,-10,-10,-11,-10
1.59112012690746e+15,9,2,-4,-6,2,2,8,11
1.59112012691557e+15,3,2,-2,-3,11,11,-1,-2
1.59112012691557e+15,-5,-6,-3,-5,-17,-17,-5,0
1.59112012692966e+15,2,2,2,1,-2,-2,-2,2
1.59112012692966e+15,7,6,9,11,5,5,-1,5
1.59112012693813e+15,10,-3,-7,-30,1,1,5,4
1.59112012693813e+15,-5,4,0,15,-1,-1,4,-1
1.59112012695436e+15,-15,-3,-4,5,-2,-2,-4,-5
1.59112012695436e+15,-7,-1,-2,11,-2,-2,-12,-4
1.59112012695536e+15,-4,5,9,5,4,4,13,-4
1.59112012695536e+15,3,-3,-4,-21,-3,-3,6,4
1.59112012696715e+15,3,-2,-7,-3,-1,-1,-8,0
1.59112012696715e+15,-4,6,1,13,3,3,2,9
1.59112012697628e+15,2,-0,5,6,-4,-4,3,8
1.59112012697628e+15,2,5,-3,-5,12,12,8,7
1.59112012699063e+15,-11,-12,-16,-9,-13,-13,-14,-9
1.59112012699063e+15,0,-10,-12,-20,-9,-9,-3,-7
1.59112012699725e+15,3,2,-8,-3,6,6,5,0
1.59112012699725e+15,-5,2,4,15,2,2,-3,-11
1.59112012701359e+15,-1,3,10,-2,7,7,0,-6
1.59112012701359e+15,2,-1,0,3,-8,-8,-5,-3
1.5911201270146e+15,7,1,0,-9,2,2,10,2
1.5911201270146e+15,9,9,2,23,6,6,-3,1
1.5911201270272e+15,-8,-9,-6,-11,-13,-13,-4,-2
1.5911201270272e+15,-22,-3,2,7,3,3,-9,-8
1.59112012703608e+15,-7,-6,-7,-9,-5,-5,-8,-4
1.59112012703608e+15,2,-1,-5,-9,3,3,7,1
1.59112012705003e+15,13,6,5,-7,10,10,9,6
1.59112012705003e+15,3,-4,3,-6,-7,-7,-2,-5
1.59112012705753e+15,-2,1,1,-1,0,0,-2,0
1.59112012705753e+15,2,-6,-6,-23,-8,-8,-2,3
1.5911201270739e+15,-1,7,6,16,2,2,6,0
1.5911201270739e+15,0,8,6,24,1,1,12,7
1.59112012707499e+15,-10,-2,-8,8,-2,-2,-11,-7
1.59112012707499e+15,0,-4,13,10,-14,-14,-18,-9
1.59112012708753e+15,3,-4,-8,-26,-3,-3,1,8
1.59112012708753e+15,-6,-6,4,-22,-2,-2,-4,-9
1.59112012709548e+15,-5,1,-7,-3,5,5,10,8
1.59112012709548e+15,-2,-0,-12,2,1,1,3,-2
1.59112012711087e+15,4,-0,-34,4,-1,-1,5,10
1.59112012711087e+15,-28,-4,26,-3,-4,-4,-11,-9
1.59112012711723e+15,3,3,12,2,1,1,4,-1
1.59112012711723e+15,-3,-4,6,-21,0,0,0,-2
1.59112012713357e+15,10,7,10,24,1,1,-3,-1
1.59112012713357e+15,15,3,-31,14,7,7,3,1
1.59112012713499e+15,-23,-17,-22,-18,-18,-18,-15,-11
1.59112012713499e+15,3,3,8,-3,3,3,-2,0
1.59112012715626e+15,-13,-2,-1,14,0,0,-11,-8
1.59112012715626e+15,16,8,8,4,7,7,6,7
1.59112012715674e+15,11,-0,-8,-8,0,0,5,0
1.59112012715674e+15,-16,-6,6,-22,-3,-3,3,-1
1.59112012717013e+15,-2,4,2,20,2,2,-4,-4
1.59112012717013e+15,-2,6,18,17,-2,-2,-1,2
1.59112012717808e+15,4,7,11,20,5,5,4,-5
1.59112012717808e+15,5,1,-7,5,-3,-3,7,4
1.59112012720181e+15,19,-3,-4,-30,-5,-5,-6,6
1.59112012720181e+15,-30,-14,-13,-20,-10,-10,-11,-6
1.59112012720282e+15,0,-0,-18,16,-1,-1,-9,-8
1.59112012720282e+15,2,-1,18,-2,-4,-4,-8,-8
1.59112012721611e+15,8,6,18,6,5,5,10,-2
1.59112012721611e+15,7,4,1,-6,7,7,9,0
1.5911201272224e+15,-13,-5,3,-8,-4,-4,3,2
1.5911201272224e+15,-11,-3,-27,8,-1,-1,-4,0
1.59112012723084e+15,15,-0,-1,0,-6,-6,-6,5
1.59112012723084e+15,17,-0,1,-5,-5,-5,-5,1
1.59112012723254e+15,-5,6,27,16,0,0,-2,2
1.59112012723254e+15,5,4,-10,2,6,6,12,5
1.59112012725326e+15,-13,-3,-3,-21,2,2,13,2
1.59112012725326e+15,0,-2,-3,8,-7,-7,-11,0
1.59112012725426e+15,-5,-17,-59,-36,-5,-5,-4,2
1.59112012725426e+15,8,4,41,12,-10,-10,-16,-3
1.59112012727537e+15,-9,2,-2,19,1,1,0,-5
1.59112012727537e+15,2,-1,-4,-17,4,4,4,-4
1.59112012727698e+15,6,6,6,20,5,5,-1,-3
1.59112012727698e+15,-1,-9,-19,-29,-8,-8,3,5
1.59112012729105e+15,-3,1,-2,10,2,2,-2,-3
1.59112012729105e+15,5,5,-6,3,5,5,7,2
1.59112012729206e+15,6,-1,-2,-14,-1,-1,2,-2
1.59112012729206e+15,6,1,-10,17,-4,-4,-6,-4
1.5911201273138e+15,-15,-4,12,10,-6,-6,-14,-17
1.5911201273138e+15,-29,-9,-6,-15,-3,-3,-4,-2
1.59112012731483e+15,7,14,22,23,6,6,15,8
1.59112012731483e+15,3,2,-5,5,3,3,3,-2
1.59112012734335e+15,-2,-5,4,-5,-9,-9,-21,-1
1.59112012734335e+15,6,-4,-26,-13,2,2,4,1
1.59112012734434e+15,-2,-0,24,-13,-3,-3,-3,-1
1.59112012734434e+15,-9,5,6,19,-1,-1,8,8
1.59112012734973e+15,-1,-4,4,-8,-2,-2,-10,-3
1.59112012734973e+15,15,3,-10,5,2,2,3,2
1.59112012735751e+15,-8,-3,3,-3,-6,-6,-11,-1
1.59112012735751e+15,5,1,-18,13,1,1,-6,-6
1.59112012737431e+15,-16,-6,4,-11,-2,-2,-1,-10
1.59112012737431e+15,2,-2,5,-15,-4,-4,0,4
1.5911201273796e+15,-2,-0,2,-8,2,2,4,-3
1.5911201273796e+15,2,-0,4,-2,6,6,-16,0
1.59112012739621e+15,10,1,-22,-19,0,0,23,5
1.59112012739621e+15,-9,-4,-5,-2,-4,-4,2,0
1.59112012739687e+15,-3,-8,1,-22,-6,-6,-3,-9
1.59112012739687e+15,-3,1,4,17,-3,-3,-5,-3
1.59112012740999e+15,16,6,9,9,5,5,-8,3
1.59112012740999e+15,9,-6,-6,-25,-5,-5,-4,2
1.59112012741748e+15,-31,3,10,24,0,0,2,-6
1.59112012741748e+15,-5,-2,1,-11,-2,-2,2,-3
1.59112012743359e+15,6,1,-7,0,-2,-2,8,6
1.59112012743359e+15,2,-0,3,-5,1,1,-1,3
1.591120127435e+15,13,-5,-13,-25,1,1,-10,-2
1.591120127435e+15,2,-3,-1,-25,-1,-1,10,1
1.59112012745635e+15,-10,-0,-15,-2,-2,-2,17,6
1.59112012745635e+15,-24,-2,2,27,-1,-1,-16,-18
1.59112012745735e+15,14,5,5,0,-3,-3,8,15
1.59112012745735e+15,-7,-6,-16,-10,-1,-1,-7,-7
1.59112012747039e+15,-4,2,20,-5,2,2,1,0
1.59112012747039e+15,11,2,-13,22,-1,-1,-9,-5
1.59112012747727e+15,1,6,13,15,5,5,1,-5
1.59112012747727e+15,4,-3,15,-34,-4,-4,1,2
1.5911201274938e+15,7,-3,2,9,-3,-3,-17,-12
1.5911201274938e+15,-2,2,3,5,-3,-3,-6,12
1.59112012749914e+15,-4,-3,-26,-12,-1,-1,6,9
1.59112012749914e+15,-36,-8,-7,2,1,1,-6,-18
1.59112012751675e+15,21,13,28,5,7,7,17,5
1.59112012751675e+15,-10,-3,-6,8,-1,-1,-4,-7
1.59112012751751e+15,13,-3,-8,-16,-4,-4,-7,4
1.59112012751751e+15,-2,-2,-7,1,-8,-8,4,-3
1.59112012753047e+15,-9,-9,-30,-17,1,1,-9,-7
1.59112012753047e+15,15,5,11,-13,6,6,8,-2
1.59112012754461e+15,-7,5,27,13,-2,-2,3,-5
1.59112012754461e+15,10,4,-10,11,5,5,-8,8
1.59112012755378e+15,-5,-2,-2,-3,-2,-2,-3,2
1.59112012755378e+15,-1,-3,-8,7,-5,-5,-24,7
1.59112012755483e+15,13,1,-6,2,6,6,-4,-8
1.59112012755483e+15,-66,-16,-32,-5,-10,-10,29,-22
1.59112012757539e+15,22,7,34,-9,-1,-1,0,11
1.59112012757539e+15,14,-0,-21,-6,-2,-2,5,7
1.59112012757676e+15,4,5,27,0,-5,-5,5,0
1.59112012757676e+15,18,4,31,8,-2,-2,-35,0
1.59112012759072e+15,-18,-8,-17,0,0,0,-19,-7
1.59112012759072e+15,-21,2,1,-3,2,2,42,-6
1.59112012759748e+15,24,1,-9,2,-7,-7,10,3
1.59112012759748e+15,14,-0,-27,-3,13,13,-2,-4
1.59112012761317e+15,-30,-6,2,-18,-5,-5,18,-5
1.59112012761317e+15,13,-7,-4,21,-5,-5,-65,-10
1.59112012761516e+15,-27,-3,-11,-3,-5,-5,42,-15
1.59112012761516e+15,12,-7,35,4,-4,-4,-93,-6
1.5911201276363e+15,19,14,21,9,3,3,46,-2
1.5911201276363e+15,-1,2,-14,-31,3,3,66,-2
1.59112012763735e+15,-23,-2,-7,8,2,2,-7,-1
1.59112012763735e+15,8,2,-22,12,-3,-3,-2,9
1.59112012765048e+15,4,-5,7,4,-6,-6,-59,17
1.59112012765048e+15,22,8,6,-6,3,3,27,0
1.59112012765759e+15,3,-5,-8,-3,4,4,-58,14
1.59112012765759e+15,-12,3,-3,-12,-10,-10,64,4
1.59112012767383e+15,-28,-16,-16,-13,-8,-8,-23,-16
1.59112012767383e+15,5,-1,-1,-10,-4,-4,-8,-4
1.59112012767484e+15,12,7,7,25,1,1,-9,4
1.59112012767484e+15,15,5,4,-4,6,6,7,1
1.59112012769532e+15,19,-1,-20,3,-4,-4,0,-2
1.59112012769532e+15,-28,1,65,10,-4,-4,-14,-9
1.59112012770311e+15,-11,1,-16,-1,4,4,35,-12
1.59112012770311e+15,17,11,36,2,-1,-1,6,14
1.59112012770904e+15,4,-2,-57,5,1,1,18,6
1.59112012770904e+15,14,2,6,-3,6,6,-25,-1
1.59112012771787e+15,13,4,2,-1,-5,-5,6,10
1.59112012771787e+15,-45,-11,-17,-4,-1,-1,4,-10
1.59112012773307e+15,1,-13,20,-2,-6,-6,-98,-9
1.59112012773307e+15,-29,3,-36,-13,4,4,91,18
1.59112012774105e+15,10,-6,17,-6,-8,-8,-35,-12
1.59112012774105e+15,13,9,-1,-1,8,8,25,13
1.59112012775642e+15,-6,1,11,3,4,4,-10,-5
1.59112012775642e+15,4,-6,-7,6,-7,-7,-41,-6
1.59112012775751e+15,-4,-10,-9,-20,-6,-6,-18,-11
1.59112012775751e+15,12,1,-16,10,2,2,-10,6
1.59112012776986e+15,-10,-3,2,-15,-4,-4,10,-3
1.59112012776986e+15,-12,-2,10,-1,3,3,-3,-13
1.59112012777822e+15,-14,3,-7,-8,8,8,29,6
1.59112012777822e+15,26,10,14,24,-2,-2,-14,4
1.59112012779373e+15,-24,-3,-15,-3,1,1,22,-3
1.59112012779373e+15,-6,-7,-5,0,-14,-14,-22,-6
1.59112012779967e+15,5,-12,23,5,-4,-4,-116,-4
1.59112012779967e+15,-8,14,-14,-8,14,14,107,6
1.59112012781677e+15,27,6,6,-13,-14,-14,29,15
1.59112012781677e+15,-5,-0,-12,12,-8,-8,9,4
1.59112012781777e+15,-20,-5,-8,-1,-3,-3,-18,8
1.59112012781777e+15,25,-0,-8,-9,5,5,-25,1
1.59112012782962e+15,-19,-1,28,7,-3,-3,6,-22
1.59112012782962e+15,-25,-13,0,-30,0,0,-28,-10
1.59112012784553e+15,16,6,-42,14,5,5,28,10
1.59112012784553e+15,-9,-0,27,2,-2,-2,-10,-9
1.59112012785375e+15,4,4,-5,13,4,4,9,2
1.59112012785375e+15,10,1,25,12,-9,-9,-20,-3
1.59112012785478e+15,-2,-0,-21,-6,2,2,21,-3
1.59112012785478e+15,4,-6,-21,-12,-5,-5,-7,-1
1.59112012787527e+15,20,4,10,6,-3,-3,-14,2
1.59112012787527e+15,-17,-2,-11,-5,13,13,-4,-1
1.59112012788325e+15,-7,-1,2,-2,-6,-6,18,-13
1.59112012788325e+15,8,-6,8,-21,-12,-12,-18,11
1.59112012788944e+15,2,-0,-7,-19,4,4,21,1
1.59112012788944e+15,5,1,0,7,-6,-6,-11,2
1.59112012789821e+15,21,3,1,-18,2,2,13,8
1.59112012789821e+15,-55,-12,2,25,-13,-13,-27,-22
1.5911201279129e+15,-6,2,-4,-4,4,4,8,7
1.5911201279129e+15,40,11,-3,6,5,5,14,5
1.59112012793585e+15,4,6,6,8,5,5,12,4
1.59112012793585e+15,-3,-8,-1,-28,-5,-5,-5,-2
1.59112012795185e+15,-10,-3,-4,8,-1,-1,-4,-10
1.59112012795185e+15,-31,-4,1,5,-1,-1,7,-8
1.59112012795286e+15,-4,-7,-14,7,-12,-12,-9,-7
1.59112012795286e+15,9,3,-4,11,-2,-2,-8,0
1.59112012795418e+15,6,1,3,5,3,3,-7,-5
1.59112012795418e+15,-2,-7,9,-7,-6,-6,-44,-6
1.59112012796388e+15,3,15,19,9,10,10,45,11
1.59112012796388e+15,-7,-4,-5,-6,-4,-4,1,-3
1.59112012797341e+15,-2,1,-7,1,1,1,5,2
1.59112012797341e+15,13,-0,-4,-4,-6,-6,-2,0
1.59112012797441e+15,-5,-6,-7,-1,-5,-5,-18,-11
1.59112012797441e+15,-5,-2,-30,5,1,1,2,7
1.59112012799543e+15,12,6,25,5,-4,-4,-7,5
1.59112012799543e+15,-4,5,6,8,5,5,11,10
1.59112012799742e+15,2,3,27,-28,5,5,6,10
1.59112012799742e+15,-3,-2,-2,10,-3,-3,-9,-10
1.59112012800883e+15,-8,-9,-13,2,-12,-12,-19,-19
1.59112012800883e+15,10,-8,-24,-23,-5,-5,-3,2
1.59112012801819e+15,11,6,0,9,5,5,17,-8
1.59112012801819e+15,-1,-8,-6,-29,-2,-2,-15,0
1.591120128034e+15,-12,7,11,17,10,10,15,6
1.591120128034e+15,13,1,-2,0,-13,-13,3,4
1.59112012803987e+15,-19,-14,-33,11,2,2,-50,-21
1.59112012803987e+15,6,17,36,0,5,5,56,11
1.59112012805718e+15,0,-4,-15,-1,-3,-3,-15,0
1.59112012805718e+15,-5,2,-5,9,3,3,3,-2
1.59112012807053e+15,-12,-1,11,0,-3,-3,-2,-1
1.59112012807053e+15,4,-5,-7,-6,-5,-5,-15,1
1.59112012807071e+15,-3,-1,3,-6,0,0,-2,-3
1.59112012807071e+15,5,7,-2,3,16,16,15,3
1.59112012807804e+15,-3,-3,8,-6,-7,-7,-7,-5
1.59112012807804e+15,2,2,11,10,-7,-7,-5,-4
1.59112012809381e+15,-7,-1,-1,-20,8,8,9,-6
1.59112012809381e+15,-2,-7,-16,3,-10,-10,-30,-3
1.59112012809482e+15,0,-2,-36,-7,-6,-6,31,10
1.59112012809482e+15,-14,-0,28,5,0,0,-12,-3
1.59112012811533e+15,-1,3,-9,-9,14,14,19,1
1.59112012811533e+15,8,4,5,1,2,2,9,2
1.59112012811733e+15,-3,-4,4,-3,-7,-7,-14,-8
1.59112012811733e+15,-5,-3,-13,0,-3,-3,-6,0
1.59112012813919e+15,-5,-7,-11,-1,-9,-9,-14,1
1.59112012813919e+15,2,5,5,-9,7,7,28,-1
1.59112012813995e+15,11,8,11,8,0,0,7,7
1.59112012813995e+15,-2,-3,-9,0,2,2,-8,-13
1.59112012815261e+15,-3,-5,-9,8,-9,-9,-28,5
1.59112012815261e+15,1,-1,-3,-9,0,0,4,-2
1.59112012816104e+15,-10,-2,15,-3,0,0,-8,-13
1.59112012816104e+15,7,3,1,5,2,2,-3,3
1.59112012817613e+15,2,-1,-4,1,-7,-7,1,-3
1.59112012817613e+15,-11,-6,-12,2,-8,-8,-12,-6
1.59112012817713e+15,-1,-0,-7,-2,4,4,3,3
1.59112012817713e+15,2,1,0,-4,6,6,-8,4
1.59112012820627e+15,-1,-2,-2,-6,-14,-14,25,-1
1.59112012820627e+15,3,12,16,25,14,14,9,8
1.59112012820719e+15,-13,-12,-20,-13,-5,-5,-14,-10
1.59112012820719e+15,2,-6,-4,4,-7,-7,-25,-15
1.59112012821431e+15,1,-0,10,-6,-4,-4,-4,3
1.59112012821431e+15,-6,-7,0,-17,1,1,-19,-6
1.59112012821518e+15,5,10,5,8,7,7,29,8
1.59112012821518e+15,1,-5,-18,-8,-2,-2,-2,-1
1.59112012823487e+15,-12,-3,-8,4,-2,-2,-2,-2
1.59112012823487e+15,2,-3,-5,1,-6,-6,-17,-5
1.59112012824967e+15,-11,1,2,8,1,1,1,-3
1.59112012824967e+15,5,3,2,-8,-5,-5,22,11
1.59112012825858e+15,-4,-0,-2,-4,6,6,2,-7
1.59112012825858e+15,-3,-0,4,-2,-6,-6,4,6
1.59112012825958e+15,6,-1,0,1,-1,-1,-9,1
1.59112012825958e+15,-4,-0,-2,-4,-1,-1,0,-3
1.59112012827372e+15,-5,-3,-1,-2,-1,-1,-5,-6
1.59112012827372e+15,1,-2,-8,-5,-1,-1,1,4
1.59112012827992e+15,1,-2,4,-6,-4,-4,-4,-3
1.59112012827992e+15,-6,1,2,8,-7,-7,5,-4
1.59112012829643e+15,10,8,4,-3,10,10,18,8
1.59112012829643e+15,-7,-1,6,2,-1,-1,1,-1
1.59112012829744e+15,1,-8,-8,-12,-12,-12,-22,-4
1.59112012829744e+15,-1,-0,-21,7,3,3,2,-1
1.59112012831786e+15,-1,-5,4,-12,-8,-8,-15,-1
1.59112012831786e+15,1,6,17,8,4,4,9,-5
1.59112012832608e+15,-4,5,7,7,3,3,10,6
1.59112012832608e+15,0,-5,-2,-9,4,4,-15,-6
1.59112012833295e+15,0,-0,-10,-7,1,1,5,1
1.59112012833295e+15,3,4,5,12,-3,-3,-1,1
1.59112012833966e+15,2,-1,-2,-9,-2,-2,0,-2
1.59112012833966e+15,-7,-5,-15,0,-3,-3,-6,-4
1.59112012835593e+15,-6,-0,4,0,-5,-5,7,1
1.59112012835593e+15,1,-1,8,-14,0,0,5,0
1.59112012835768e+15,4,1,-6,12,-6,-6,-9,7
1.59112012835768e+15,2,2,5,-3,4,4,1,0
1.59112012837869e+15,1,-1,-12,-6,4,4,0,2
1.59112012837869e+15,-9,-6,-15,-6,-10,-10,-5,4
1.59112012838006e+15,-7,-1,14,-8,-1,-1,0,-9
1.59112012838006e+15,-5,3,-9,15,4,4,9,-4
1.59112012839267e+15,8,6,17,15,0,0,-9,-2
1.59112012839267e+15,7,-1,-1,-10,-3,-3,3,-1
1.59112012840066e+15,-2,-2,-1,2,-3,-3,-7,-3
1.59112012840066e+15,-4,-1,1,1,2,2,-4,-2
1.59112012841541e+15,-3,-5,-17,-14,2,2,-5,2
1.59112012841541e+15,4,-1,-8,8,-9,-9,-5,-2
1.59112012841741e+15,-1,2,11,-3,1,1,7,-4
1.59112012841741e+15,2,1,1,8,-4,-4,-4,1
1.59112012843877e+15,-1,-0,-2,0,5,5,2,2
1.59112012843877e+15,-11,-4,3,-9,-1,-1,3,-4
1.59112012844004e+15,7,4,-4,13,1,1,-2,2
1.59112012844004e+15,5,2,4,-11,3,3,8,3
1.59112012845311e+15,-20,-9,-9,-2,-5,-5,-11,-14
1.59112012845311e+15,-2,-2,-9,10,-3,-3,-13,-10
1.59112012846726e+15,0,-0,14,-7,-3,-3,-12,-3
1.59112012846726e+15,1,4,8,11,-4,-4,8,-1
1.59112012847515e+15,6,6,0,-1,2,2,21,9
1.59112012847515e+15,-8,-3,-3,-1,1,1,-3,-8
1.59112012847715e+15,5,-1,-8,0,-2,-2,-10,5
1.59112012847715e+15,-8,-11,-10,-21,-13,-13,-14,-5
1.59112012849878e+15,2,5,14,0,3,3,5,10
1.59112012849878e+15,2,-1,-8,-4,-3,-3,2,-3
1.59112012849982e+15,-1,4,4,-5,10,10,15,2
1.59112012849982e+15,2,3,8,5,-6,-6,7,3
1.59112012851308e+15,1,-4,-8,-6,-1,-1,-10,-7
1.59112012851308e+15,3,3,2,-2,4,4,6,7
1.59112012851986e+15,-4,-1,1,2,10,10,-15,-3
1.59112012851986e+15,-8,1,-9,9,-6,-6,13,-7
1.59112012853542e+15,-2,3,39,5,-6,-6,-17,-6
1.59112012853542e+15,-8,-1,-1,3,-7,-7,14,-3
1.59112012855918e+15,0,-6,-24,-15,0,0,-13,2
1.59112012855918e+15,7,7,3,-3,14,14,19,3
1.59112012855918e+15,-2,-7,-12,2,-13,-13,-18,-5
1.59112012855918e+15,1,-3,-22,-9,7,7,1,-2
1.59112012856118e+15,-1,-6,-12,5,-2,-2,-35,-5
1.59112012856118e+15,-10,-8,-14,-9,-16,-16,10,-9
1.59112012857297e+15,2,7,39,2,3,3,15,-11
1.59112012857297e+15,5,-4,0,4,-19,-19,-46,23
1.59112012857953e+15,-1,15,7,-3,25,25,77,-4
1.59112012857953e+15,9,-9,-9,-9,-13,-13,-47,11
1.59112012859637e+15,-15,3,-12,5,18,18,29,-13
1.59112012859637e+15,-9,-8,2,-7,-12,-12,-6,-14
1.59112012859686e+15,1,2,-2,-8,-2,-2,4,16
1.59112012859686e+15,4,-5,2,-4,-11,-11,-13,-6
1.59112012861835e+15,-16,-16,-24,-10,-17,-17,-28,-5
1.59112012861835e+15,9,-0,23,-7,4,4,-39,1
1.59112012862035e+15,-1,1,-16,25,-10,-10,11,-17
1.59112012862035e+15,-8,5,13,-2,10,10,21,-9
1.59112012863246e+15,0,-14,-40,-23,-17,-17,0,12
1.59112012863246e+15,-3,-1,1,-21,16,16,21,3
1.59112012864751e+15,-7,-17,27,-9,-29,-29,-106,-22
1.59112012864751e+15,1,21,12,51,29,29,64,-30
1.59112012865621e+15,2,-8,-30,-25,-23,-23,19,7
1.59112012865621e+15,-10,-10,-8,-46,-4,-4,7,-9
1.59112012865758e+15,10,19,4,66,3,3,-7,16
1.59112012865758e+15,38,37,26,20,54,54,68,41
1.59112012867875e+15,-6,-15,11,30,-14,-14,-79,-63
1.59112012867875e+15,7,-11,-10,-102,-2,-2,49,27
1.59112012868004e+15,-13,2,20,77,-33,-33,-30,-57
1.59112012868004e+15,-49,-53,-49,-85,-75,-75,-68,-10
1.59112012869162e+15,54,51,45,-24,114,114,118,51
1.59112012869162e+15,-16,-24,-12,20,-67,-67,-21,-18
1.59112012870058e+15,2,-14,1,15,-19,-19,-54,-45
1.59112012870058e+15,22,42,2,57,33,33,31,74
1.59112012871632e+15,-53,-6,-38,118,-71,-71,-22,-4
1.59112012871632e+15,-47,12,-30,55,36,36,21,15
1.59112012871693e+15,12,-14,4,-119,5,5,74,53
1.59112012871693e+15,39,-14,11,-21,-1,-1,-96,-45
1.59112012873847e+15,3,24,-8,47,18,18,-11,16
1.59112012873847e+15,-51,27,70,127,22,22,3,-57
1.59112012874476e+15,-3,-21,-38,-62,-31,-31,-3,16
1.59112012874476e+15,12,3,-2,-128,60,60,63,26
1.59112012876023e+15,-9,-70,-43,-106,-83,-83,-91,-40
1.59112012876023e+15,69,38,23,-15,49,49,70,34
1.59112012876218e+15,-29,-8,-16,11,-21,-21,24,-6
1.59112012876218e+15,28,-4,31,-1,-33,-33,-25,20
1.59112012877522e+15,55,27,36,18,29,29,4,2
1.59112012877522e+15,-61,-6,33,19,-14,-14,1,7
1.59112012877724e+15,-76,-32,-64,-63,15,15,-11,-33
1.59112012877724e+15,-4,18,-2,-5,48,48,60,13
1.59112012879773e+15,-56,-39,18,-15,-44,-44,-49,-54
1.59112012879773e+15,41,-34,-52,-64,-51,-51,-97,-30
1.59112012879973e+15,54,72,60,70,85,85,77,38
1.59112012879973e+15,-4,18,-23,125,-16,-16,-15,-8
1.591120128821e+15,84,15,26,2,9,9,7,13
1.591120128821e+15,-30,20,25,1,71,71,55,13
1.59112012882201e+15,-101,-55,-31,-90,-77,-77,-12,-3
1.59112012882201e+15,-19,22,23,71,11,11,33,17
1.5911201288272e+15,56,14,5,-52,28,28,39,26
1.5911201288272e+15,29,-5,-22,32,-44,-44,-38,1
1.59112012883498e+15,-26,18,15,57,42,42,13,-8
1.59112012883498e+15,6,-10,15,6,-34,-34,-21,8
1.59112012885066e+15,-4,-15,-10,-43,-18,-18,-16,1
1.59112012885066e+15,-36,-30,-44,-99,-17,-17,-36,15
1.59112012885756e+15,106,26,6,11,13,13,39,-2
1.59112012885756e+15,-56,-14,3,-13,13,13,-24,-48
1.59112012887167e+15,8,-5,-74,-64,2,2,31,34
1.59112012887167e+15,65,34,41,61,42,42,8,-14
1.59112012888059e+15,12,-6,-4,17,-42,-42,-9,26
1.59112012888059e+15,75,-4,10,22,-51,-51,-43,-5
1.59112012889567e+15,-89,-16,21,-34,22,22,-13,-27
1.59112012889567e+15,57,15,-14,21,4,4,31,9
1.59112012890241e+15,93,32,-8,-15,41,41,48,45
1.59112012890241e+15,-38,-20,-10,-28,-21,-21,-21,0
1.59112012891802e+15,-93,-34,-25,5,-31,-31,-29,-37
1.59112012891802e+15,28,-2,29,-49,13,13,0,-20
1.59112012892e+15,49,29,23,76,15,15,-15,15
1.59112012892e+15,76,13,10,-13,-19,-19,21,45
1.59112012893163e+15,-83,-38,-20,9,-43,-43,-65,-32
1.59112012893163e+15,-29,-35,-73,-106,-19,-19,6,1
1.59112012895592e+15,23,12,20,-7,21,21,-15,-8
1.59112012895592e+15,19,26,32,29,18,18,27,19
1.59112012895693e+15,14,47,46,92,41,41,59,24
1.59112012895693e+15,-50,5,15,119,-14,-14,-33,-24
1.59112012896196e+15,24,-9,-21,-48,-5,-5,0,25
1.59112012896196e+15,-36,-16,-31,-31,5,5,-7,-26
1.59112012897795e+15,42,-1,-12,-38,3,3,6,19
1.59112012897795e+15,59,1,12,-38,-21,-21,1,15
1.59112012897795e+15,-90,-35,7,9,-17,-17,-37,-49
1.59112012897795e+15,-50,-24,-31,-41,-20,-20,-13,-5
1.59112012899999e+15,15,-1,16,-13,2,2,-15,-25
1.59112012899999e+15,65,37,1,1,35,35,53,52
1.59112012900078e+15,-20,1,45,8,1,1,-43,-32
1.59112012900078e+15,-21,-6,16,45,-7,-7,-12,-53
1.59112012901478e+15,69,36,7,24,33,33,40,45
1.59112012901478e+15,-32,-13,-24,-23,-8,-8,-6,-2
1.59112012902245e+15,15,-3,9,2,-25,-25,-4,-2
1.59112012902245e+15,-19,-12,-16,-16,9,9,-36,-19
1.59112012903879e+15,35,25,6,-7,22,22,62,15
1.59112012903879e+15,-57,-39,-35,-66,-14,-14,-39,-24
1.59112012903984e+15,6,-10,-61,-44,-3,-3,27,30
1.59112012903984e+15,-25,-15,-1,-45,24,24,-25,-64
1.59112012906004e+15,35,25,50,39,5,5,57,21
1.59112012906004e+15,28,-47,-85,-45,-79,-79,-101,-20
1.59112012906796e+15,12,17,7,-3,17,17,31,31
1.59112012906796e+15,66,16,-5,36,1,1,-14,12
1.59112012907482e+15,24,6,-14,-2,-1,-1,10,7
1.59112012907482e+15,-128,-15,31,-11,24,24,13,-29
1.59112012908177e+15,-13,-16,40,50,-39,-39,-62,-50
1.59112012908177e+15,108,22,-6,-69,19,19,30,67
1.59112012909897e+15,-121,-33,-46,-20,-22,-22,-3,-23
1.59112012909897e+15,31,17,55,88,-11,-11,-41,-22
1.59112012909997e+15,4,-0,-22,-31,14,14,11,11
1.59112012909997e+15,-37,7,-7,-6,28,28,42,-2
1.59112012912051e+15,27,-1,4,21,-33,-33,-28,15
1.59112012912051e+15,54,17,13,-8,20,20,16,27
1.59112012912071e+15,-125,-44,-26,-56,-23,-23,-3,-44
1.59112012912071e+15,44,18,17,46,8,8,2,-8
1.5911201291426e+15,3,2,-24,-26,34,34,-3,-6
1.5911201291426e+15,-13,-4,-3,-4,-18,-18,15,-7
1.59112012914355e+15,34,18,33,35,8,8,-6,15
1.59112012914355e+15,-20,-5,-2,-8,-2,-2,8,1
1.59112012916635e+15,30,1,7,4,-15,-15,-16,-5
1.59112012916635e+15,22,14,15,17,18,18,17,1
1.59112012916635e+15,-20,-5,-12,-26,20,20,2,-7
1.59112012916635e+15,-18,-17,-9,6,-34,-34,-29,-24
1.59112012918055e+15,5,2,-13,17,-7,-7,-11,11
1.59112012918055e+15,51,15,23,-7,20,20,14,-2
1.59112012918072e+15,-74,-19,-41,33,-17,-17,-5,-29
1.59112012918072e+15,1,-21,-28,-55,-31,-31,-25,34
1.59112012919398e+15,30,15,26,19,17,17,10,-13
1.59112012919398e+15,56,21,4,22,7,7,12,27
1.5911201292025e+15,28,27,11,13,25,25,62,33
1.5911201292025e+15,-27,-20,-24,-21,-14,-14,-11,-17
1.59112012921771e+15,-7,-13,-16,-33,-28,-28,3,18
1.59112012921771e+15,7,20,30,9,33,33,38,0
1.59112012922533e+15,7,7,-4,-1,11,11,2,12
1.59112012922533e+15,-27,-10,9,15,-20,-20,-26,-21
1.59112012924028e+15,41,6,9,3,-11,-11,-29,23
1.59112012924028e+15,-76,2,-6,12,23,23,39,12
1.59112012924028e+15,77,-7,-5,-20,-32,-32,-47,-8
1.59112012924028e+15,-92,-22,25,6,-15,-15,-21,-41
1.59112012925427e+15,-49,-6,-24,-1,11,11,-1,0
1.59112012925427e+15,-8,-6,-8,-6,-2,-2,5,-14
1.59112012926196e+15,43,20,40,-21,34,34,8,4
1.59112012926196e+15,42,-0,-5,6,-34,-34,-16,12
1.59112012927802e+15,-17,10,13,50,9,9,-3,-6
1.59112012927802e+15,-21,3,-3,56,0,0,1,-18
1.59112012927802e+15,59,-0,-10,-32,-15,-15,-6,28
1.59112012927802e+15,-1,-3,7,-25,18,18,-10,-20
1.5911201293005e+15,-16,4,3,17,12,12,18,-20
1.5911201293005e+15,24,-8,4,1,-42,-42,-39,15
1.5911201293007e+15,-13,-8,11,-19,-9,-9,-2,-13
1.5911201293007e+15,-15,10,30,46,12,12,-6,5
1.59112012931566e+15,-14,-24,-62,-90,-7,-7,1,4
1.59112012931566e+15,10,11,22,11,5,5,13,4
1.59112012932255e+15,16,17,5,19,10,10,26,21
1.59112012932255e+15,21,9,-5,2,11,11,19,9
1.59112012933809e+15,27,-14,5,-4,-20,-20,-74,-16
1.59112012933809e+15,-38,-6,-25,-7,3,3,27,-14
1.59112012933809e+15,-52,-27,-4,-2,-41,-41,-53,-19
1.59112012933809e+15,2,6,6,13,20,20,25,-12
1.59112012936004e+15,-58,-14,-18,-23,5,5,18,-26
1.59112012936004e+15,-23,-17,-7,-23,-14,-14,-50,-15
1.59112012936104e+15,-11,19,-25,62,25,25,31,17
1.59112012936104e+15,-24,-16,-21,-50,-17,-17,6,-5
1.59112012937496e+15,51,29,49,47,13,13,10,36
1.59112012937496e+15,13,-8,-68,-49,11,11,22,21
1.59112012939039e+15,-35,-24,1,-19,-17,-17,-40,-49
1.59112012939039e+15,-11,7,-25,14,8,8,18,20
1.59112012939718e+15,-19,-6,8,-3,-5,-5,27,-22
1.59112012939718e+15,48,14,21,13,11,11,-20,-5
1.59112012939818e+15,-33,-6,11,-5,-19,-19,12,19
1.59112012939818e+15,-10,-8,-49,-36,15,15,20,4
1.59112012942039e+15,17,10,33,-6,1,1,10,16
1.59112012942039e+15,65,16,-14,27,-9,-9,-8,21
1.59112012942039e+15,-8,2,16,16,11,11,7,-23
1.59112012942039e+15,19,18,17,26,10,10,-10,-3
1.59112012944247e+15,25,-7,-39,6,-13,-13,-30,-4
1.59112012944247e+15,20,-4,-4,-50,0,0,42,6
1.59112012944347e+15,-3,-0,1,-10,-5,-5,19,0
1.59112012944347e+15,1,-28,4,-22,-51,-51,-77,-14
1.59112012945796e+15,-16,3,17,-24,19,19,15,2
1.59112012945796e+15,1,10,19,47,0,0,-13,-7
1.59112012945796e+15,31,16,2,19,16,16,17,10
1.59112012945796e+15,52,39,50,46,27,27,52,28
1.59112012948867e+15,-27,-33,-38,-59,-24,-24,-34,-25
1.59112012948867e+15,22,8,11,10,4,4,0,16
1.59112012948902e+15,-9,-18,-61,-51,-9,-9,6,5
1.59112012948902e+15,-20,-1,3,31,0,0,-9,-21
1.59112012949401e+15,-11,2,6,27,3,3,-16,-9
1.59112012949401e+15,-21,7,22,-15,12,12,27,11
1.59112012950204e+15,8,-0,15,-6,1,1,-12,3
1.59112012950204e+15,-18,-38,-69,-68,-24,-24,-55,-9
1.59112012951777e+15,3,5,10,-18,7,7,24,8
1.59112012951777e+15,-77,-16,-30,14,-2,-2,-5,-24
1.59112012951777e+15,35,15,19,44,0,0,-19,10
1.59112012951777e+15,20,9,9,-28,16,16,29,13
1.59112012954052e+15,-14,11,41,62,5,5,16,-16
1.59112012954052e+15,-1,-19,-29,-35,-18,-18,-28,-18
1.59112012954052e+15,14,-11,-32,-28,-9,-9,-8,-11
1.59112012954052e+15,-11,-9,-39,13,-15,-15,-27,-3
1.59112012956264e+15,13,18,29,26,21,21,-2,-3
1.59112012956264e+15,89,51,34,35,39,39,66,67
1.59112012956363e+15,-114,-75,-39,-80,-87,-87,-75,-68
1.59112012956363e+15,20,9,11,1,7,7,27,15
1.59112012957801e+15,31,13,10,13,-2,-2,6,17
1.59112012957801e+15,-35,-23,-1,-29,-5,-5,-33,-16
1.59112012957801e+15,51,50,55,22,48,48,91,40
1.59112012957801e+15,-3,21,29,88,-9,-9,-4,8
1.59112012959961e+15,-24,-32,-76,-74,-14,-14,-33,-37
1.59112012959961e+15,2,13,8,-12,17,17,49,19
1.59112012960735e+15,30,23,15,20,23,23,26,36
1.59112012960735e+15,-44,-42,-18,-55,-32,-32,-45,-54
1.59112012962288e+15,11,11,23,21,11,11,-1,14
1.59112012962288e+15,1,5,9,3,-3,-3,35,-9
1.59112012962288e+15,-27,-34,-30,-58,-22,-22,-49,-41
1.59112012962288e+15,-18,22,-8,4,33,33,74,37
1.59112012963796e+15,34,21,26,45,12,12,-14,17
1.59112012963796e+15,-30,-23,-15,-2,-38,-38,-12,-38
1.59112012963796e+15,12,14,5,29,21,21,19,-6
1.59112012963796e+15,-15,-9,10,11,-12,-12,-51,-11
1.59112012966008e+15,-18,-7,-7,-3,1,1,-9,-10
1.59112012966008e+15,7,-18,-43,-31,-8,-8,-35,-22
1.59112012966104e+15,67,21,18,18,-7,-7,19,35
1.59112012966104e+15,22,3,-4,-11,8,8,-2,15
1.59112012968278e+15,-46,-3,16,5,-10,-10,36,-3
1.59112012968278e+15,-72,-21,-1,3,-3,-3,-66,-30
1.59112012968278e+15,20,4,-11,-32,9,9,18,20
1.59112012968278e+15,12,-5,3,21,-20,-20,-18,-23
1.59112012969776e+15,13,8,-16,-3,8,8,24,15
1.59112012969776e+15,33,3,24,2,-14,-14,-8,4
1.59112012969858e+15,-11,3,-10,1,20,20,0,-7
1.59112012969858e+15,15,-6,-6,-31,-17,-17,8,6
1.59112012972012e+15,-22,-4,12,14,8,8,-11,-39
1.59112012972012e+15,-31,-21,-9,-13,-46,-46,-33,10
1.59112012972066e+15,-10,3,0,-13,19,19,6,4
1.59112012972066e+15,84,43,54,44,27,27,45,17
1.59112012974349e+15,-82,-38,-72,-62,-12,-12,-5,-23
1.59112012974349e+15,-23,-17,27,-3,-19,-19,-58,-33
1.59112012974349e+15,8,9,2,33,2,2,3,0
1.59112012974349e+15,16,32,52,19,32,32,55,20
1.59112012975817e+15,0,-25,0,-18,-52,-52,-53,-12
1.59112012975817e+15,3,-4,-3,9,7,7,-49,-21
1.59112012975817e+15,-12,-7,-33,-10,-7,-7,1,18
1.59112012975817e+15,-5,11,-6,-1,18,18,28,15
1.59112012978057e+15,26,7,10,-15,-8,-8,25,25
1.59112012978057e+15,19,19,14,33,24,24,24,-11
1.59112012978057e+15,13,-12,0,0,-30,-30,-37,5
1.59112012978057e+15,-12,-4,-36,-49,13,13,38,5
1.59112012980317e+15,65,26,32,68,2,2,-40,16
1.59112012980317e+15,-52,-15,-10,-1,-4,-4,-2,-18
1.59112012980317e+15,-10,-16,-7,-11,-27,-27,-26,-22
1.59112012980317e+15,12,6,1,8,7,7,13,3
1.59112012982597e+15,-2,2,6,-3,13,13,-4,-17
1.59112012982597e+15,-30,-3,-37,-21,2,2,47,17
1.5911201298269e+15,-6,20,33,29,32,32,26,-10
1.5911201298269e+15,-29,-21,-29,-47,-26,-26,-3,22
1.59112012984053e+15,90,27,26,12,21,21,19,9
1.59112012984053e+15,56,20,-23,15,10,10,10,47
1.59112012984072e+15,-36,-21,4,-14,-24,-24,-35,-26
1.59112012984072e+15,-68,-19,-15,6,-16,-16,-12,-19
1.59112012987108e+15,-24,-18,-13,-16,-25,-25,-19,-3
1.59112012987108e+15,29,16,21,-3,21,21,21,15
1.59112012987108e+15,-16,-0,0,4,9,9,0,-17
1.59112012987108e+15,17,1,-2,-5,13,13,-16,-24
1.59112012988507e+15,-49,-19,-13,-14,-21,-21,-3,-16
1.59112012988507e+15,7,2,-13,13,6,6,-17,-6
1.59112012989209e+15,18,30,-4,10,47,47,51,35
1.59112012989209e+15,52,-6,4,6,-47,-47,-18,12
1.59112012990059e+15,-69,-42,-61,-38,-17,-17,-44,-61
1.59112012990059e+15,15,19,29,-14,27,27,45,15
1.59112012990059e+15,-39,-16,12,30,-35,-35,-23,-27
1.59112012990059e+15,17,12,-3,-25,35,35,12,15
1.59112012992312e+15,-31,-12,-16,-30,-11,-11,32,-14
1.59112012992312e+15,-5,-17,15,18,-33,-33,-84,-20
1.59112012992312e+15,5,14,7,17,14,14,27,17
1.59112012992312e+15,1,-0,12,-16,15,15,3,-25
1.59112012993775e+15,76,17,-3,-14,-12,-12,23,66
1.59112012993775e+15,-33,-3,11,22,12,12,9,-68
1.59112012993875e+15,26,3,-22,27,-11,-11,-37,10
1.59112012993875e+15,-63,-27,-5,6,-24,-24,-58,-26
1.59112012996008e+15,22,11,0,8,14,14,14,22
1.59112012996008e+15,35,8,-18,-47,0,0,56,39
1.59112012996103e+15,4,25,28,-20,56,56,56,10
1.59112012996103e+15,-42,-39,-51,15,-60,-60,-74,-44
1.59112012998303e+15,42,32,58,52,8,8,1,39
1.59112012998303e+15,-56,-16,-21,5,-3,-3,-15,-27
1.59112012998303e+15,45,14,20,7,-1,-1,9,13
1.59112012998303e+15,-91,-21,-22,-42,9,9,9,-16
1.59112012999738e+15,22,17,38,38,5,5,17,-8
1.59112012999738e+15,33,-20,-39,-31,-31,-31,-39,7
1.59112012999817e+15,42,-7,1,-6,-17,-17,-47,-15
1.59112012999817e+15,23,43,31,9,58,58,105,42
1.59112013002053e+15,-96,-48,-38,-1,-39,-39,-60,-76
1.59112013002053e+15,21,-3,8,11,-9,-9,-32,-12
1.59112013002053e+15,69,7,-15,-31,2,2,19,26
1.59112013002053e+15,-60,-23,19,-38,-19,-19,-44,-15
1.59112013004256e+15,-12,13,-55,20,28,28,32,-5
1.59112013004256e+15,91,42,43,36,13,13,32,63
1.59112013004351e+15,-128,-22,-14,10,9,9,-1,-39
1.59112013004351e+15,18,-14,3,16,-52,-52,-60,9
1.59112013005814e+15,92,32,64,6,30,30,14,21
1.59112013005814e+15,-88,-10,-49,-44,32,32,38,17
1.59112013005814e+15,-28,-48,-31,-48,-90,-90,-41,-15
1.59112013005814e+15,78,27,15,9,40,40,26,2
1.59112013008013e+15,14,9,17,4,8,8,1,9
1.59112013008013e+15,22,-13,-57,-69,-36,-36,31,63
1.59112013008065e+15,-57,-4,19,13,21,21,-6,-32
1.59112013008065e+15,70,27,-3,0,28,28,42,23
1.5911201301031e+15,-14,-29,-20,-25,-46,-46,-35,-6
1.5911201301031e+15,-11,31,38,58,46,46,55,-20
1.5911201301031e+15,-14,-26,-32,-41,-25,-25,-40,-8
1.5911201301031e+15,58,-12,-2,-20,-34,-34,-58,-6
1.59112013011783e+15,-12,38,4,40,57,57,59,65
1.59112013011783e+15,-28,-20,-5,-28,-40,-40,2,-7
1.59112013011783e+15,-34,-31,-44,-20,-4,-4,-45,-70
1.59112013011783e+15,77,73,73,65,58,58,99,77
1.59112013014861e+15,74,9,12,-16,-5,-5,-9,9
1.59112013014861e+15,-65,-38,-11,-5,-50,-50,-68,-35
1.59112013014936e+15,83,44,39,34,48,48,41,19
1.59112013014936e+15,49,-22,-19,-54,-35,-35,-35,-16
1.59112013016205e+15,-99,-32,-59,-49,7,7,8,-45
1.59112013016205e+15,75,28,24,67,0,0,0,11
1.59112013016302e+15,-1,11,48,14,1,1,-11,-5
1.59112013016302e+15,-26,4,-9,71,-6,-6,-16,-10
1.59112013017723e+15,60,29,17,3,24,24,30,46
1.59112013017723e+15,-85,-41,11,-29,-33,-33,-50,-51
1.59112013017817e+15,33,27,5,30,41,41,45,6
1.59112013017817e+15,-64,-39,-40,-40,-34,-34,-60,-13
1.59112013020051e+15,-71,-20,-11,-27,7,7,-9,-18
1.59112013020051e+15,17,20,14,-10,32,32,41,7
1.59112013020072e+15,48,7,14,24,-17,-17,-44,1
1.59112013020072e+15,36,25,32,69,-6,-6,40,2
1.59112013022317e+15,-20,-16,-54,-47,-3,-3,-13,6
1.59112013022317e+15,101,22,11,-36,30,30,49,-1
1.59112013022317e+15,-95,-62,-64,-71,-71,-71,-51,-1
1.59112013022317e+15,-46,-18,4,45,-29,-29,-76,-48
1.59112013023817e+15,40,12,21,15,12,12,6,-3
1.59112013023817e+15,18,17,26,10,8,8,7,7
1.59112013023817e+15,33,43,-25,77,48,48,80,32
1.59112013023817e+15,-54,-1,-11,-18,26,26,21,6
1.59112013025994e+15,11,21,15,5,34,34,79,-23
1.59112013025994e+15,-70,-65,-39,-51,-86,-86,-92,-28
1.59112013026093e+15,-18,-15,10,-27,-12,-12,-25,-19
1.59112013026093e+15,-20,7,6,-8,33,33,37,6
1.59112013028275e+15,28,-2,2,-35,-9,-9,-12,10
1.59112013028275e+15,44,48,8,59,48,48,71,40
1.59112013028378e+15,-20,-35,-18,-9,-56,-56,-61,-33
1.59112013028378e+15,14,-12,-20,-58,-18,-18,-1,17
1.59112013029806e+15,-7,4,29,32,-5,-5,-10,4
1.59112013029806e+15,0,1,1,-3,14,14,-8,-12
1.59112013029854e+15,6,16,7,23,20,20,-5,23
1.59112013029854e+15,-26,12,4,12,35,35,28,-1
1.59112013032049e+15,12,-9,-27,-10,-30,-30,-7,9
1.59112013032049e+15,-44,-22,-4,-1,-21,-21,-25,-43
1.59112013032049e+15,52,12,9,-17,13,13,10,26
1.59112013032049e+15,60,9,5,-14,-15,-15,20,11
1.59112013035149e+15,-98,-53,-30,-23,-34,-34,-88,-73
1.59112013035149e+15,85,38,9,36,49,49,14,17
1.59112013035226e+15,26,-10,-7,2,-36,-36,-29,-13
1.59112013035226e+15,33,5,-12,-21,5,5,20,6
1.59112013035901e+15,61,33,40,65,17,17,-2,25
1.59112013035901e+15,-20,-44,-52,-88,-52,-52,-32,-11
1.59112013036002e+15,2,11,34,4,13,13,21,5
1.59112013036002e+15,-27,3,8,28,8,8,-19,-5
1.59112013038033e+15,-14,-4,-17,-6,0,0,9,-5
1.59112013038033e+15,2,-17,-5,-42,-15,-15,-30,-22
1.59112013038065e+15,-1,36,7,81,29,29,43,38
1.59112013038065e+15,-1,-0,-3,6,-2,-2,8,-12
1.59112013040325e+15,-85,-28,-1,-4,-13,-13,-38,-50
1.59112013040325e+15,-33,-12,-1,3,-12,-12,-13,-7
1.59112013040325e+15,5,-9,-11,-50,-21,-21,43,13
1.59112013040325e+15,-15,-7,-18,-29,21,21,0,-18
1.59112013042518e+15,40,18,16,17,6,6,23,16
1.59112013042518e+15,18,9,1,-6,4,4,23,28
1.59112013042619e+15,-3,-9,24,42,-34,-34,-92,-29
1.59112013042619e+15,-17,-0,-10,5,19,19,8,-14
1.59112013044054e+15,46,10,-2,8,-7,-7,2,15
1.59112013044054e+15,24,6,12,23,0,0,-24,12
1.59112013044071e+15,-41,-11,-11,-65,31,31,60,-34
1.59112013044071e+15,45,-7,-17,-47,-13,-13,-7,0
1.59112013046269e+15,42,22,3,38,7,7,12,18
1.59112013046269e+15,7,34,33,72,37,37,20,7
1.59112013047069e+15,11,-5,-12,19,-18,-18,-45,3
1.59112013047069e+15,-44,-26,-11,-45,-27,-27,11,-9
1.5911201304781e+15,-19,-20,2,-50,-19,-19,-21,-7
1.5911201304781e+15,3,-9,-14,14,-24,-24,-14,-17
1.5911201304781e+15,41,26,10,3,24,24,47,41
1.5911201304781e+15,16,15,8,33,24,24,10,-9
1.59112013050003e+15,-30,-10,-1,-27,-8,-8,14,-7
1.59112013050003e+15,-100,-33,-10,-57,-11,-11,-27,-5
1.59112013050083e+15,-71,-28,-36,-6,2,2,-64,-35
1.59112013050083e+15,11,7,33,26,-20,-20,11,-3
1.5911201305308e+15,53,35,3,28,26,26,38,39
1.5911201305308e+15,9,-10,-11,28,-26,-26,-51,-16
1.59112013053152e+15,44,19,-8,-16,33,33,45,24
1.59112013053152e+15,-89,-36,-5,-4,-24,-24,-82,-31
1.59112013053786e+15,47,8,-15,-29,25,25,27,-4
1.59112013053786e+15,43,2,-3,-30,-11,-11,30,12
1.59112013053786e+15,-43,-35,12,-58,-47,-47,-32,-24
1.59112013053786e+15,-23,19,-22,43,28,28,43,15
1.59112013056009e+15,58,7,5,-25,-10,-10,-22,42
1.59112013056009e+15,-78,-7,-4,47,16,16,19,-58
1.59112013056108e+15,-13,8,23,-6,19,19,4,12
1.59112013056108e+15,7,-27,-23,19,-52,-52,-90,-29
1.5911201305828e+15,28,-2,-6,-14,-1,-1,-23,-8
1.5911201305828e+15,44,35,9,39,22,22,54,49
1.59112013059854e+15,-21,-3,-8,-43,24,24,19,-5
1.59112013059854e+15,-21,-10,14,-24,-21,-21,9,-17
1.59112013059926e+15,22,22,12,82,6,6,-12,8
1.59112013059926e+15,38,-8,2,-37,-21,-21,-13,-7
1.59112013060551e+15,-80,-17,-13,-2,10,10,5,-27
1.59112013060551e+15,47,23,-5,1,9,9,42,44
1.59112013061948e+15,-30,-28,5,3,-33,-33,-71,-36
1.59112013061948e+15,-5,28,15,20,39,39,61,24
1.59112013062105e+15,13,-19,-15,-18,-24,-24,-60,-25
1.59112013062105e+15,-5,19,17,-19,48,48,65,16
1.59112013064349e+15,-62,-31,-21,-13,-46,-46,-37,-35
1.59112013064349e+15,34,4,-8,-11,-1,-1,-25,32
1.59112013064349e+15,98,37,-1,31,15,15,60,44
1.59112013064349e+15,-6,-2,0,19,-16,-16,2,-11
1.59112013065651e+15,-30,-6,20,17,7,7,-38,-16
1.59112013065651e+15,15,33,20,-14,61,61,75,47
1.59112013066578e+15,16,-24,-20,-34,-70,-70,4,-2
1.59112013066578e+15,43,15,22,5,4,4,-9,29
1.59112013068093e+15,8,37,-11,0,72,72,80,56
1.59112013068093e+15,-37,-38,-2,8,-74,-74,-101,-35
1.59112013068093e+15,73,24,-11,15,27,27,17,31
1.59112013068093e+15,-56,-25,21,-38,-1,-1,-43,-43
1.59112013071136e+15,-47,-28,-40,-63,-18,-18,31,-35
1.59112013071136e+15,3,-4,-1,4,-5,-5,-33,-11
1.59112013071136e+15,-2,14,22,56,-2,-2,-25,2
1.59112013071136e+15,39,9,-12,40,-7,-7,20,-16
1.5911201307181e+15,66,15,24,11,6,6,-11,-2
1.5911201307181e+15,-22,-23,-17,-33,-27,-27,-10,-29
1.59112013072581e+15,-87,-9,2,-9,30,30,8,-9
1.59112013072581e+15,44,7,8,-5,-28,-28,24,19
1.59112013074115e+15,-11,1,-17,-3,31,31,22,-18
1.59112013074115e+15,62,28,8,3,23,23,31,36
1.59112013074115e+15,-30,-26,5,-34,-16,-16,-32,-71
1.59112013074115e+15,-106,-29,-20,10,-43,-43,-36,1
1.5911201307638e+15,27,27,3,34,34,34,45,14
1.5911201307638e+15,-23,5,6,24,-11,-11,16,25
1.5911201307638e+15,62,6,-6,-4,3,3,-12,-18
1.5911201307638e+15,-64,-19,0,-18,-10,-10,-17,-13
1.59112013077828e+15,-15,-14,-12,-21,-7,-7,-7,-4
1.59112013077828e+15,15,12,10,13,13,13,1,-4
1.59112013078498e+15,15,28,-3,-16,41,41,102,50
1.59112013078498e+15,33,-5,0,5,-11,-11,-32,-34
1.59112013080815e+15,18,-8,-1,-1,-50,-50,-24,26
1.59112013080815e+15,-106,-14,-6,31,14,14,2,-48
1.59112013080898e+15,49,12,9,13,-14,-14,2,24
1.59112013080898e+15,59,12,4,-2,17,17,-16,2
1.59112013082338e+15,-31,14,3,-12,48,48,67,6
1.59112013082338e+15,-46,-40,-6,-82,-34,-34,-14,-57
1.59112013082338e+15,30,23,26,72,-2,-2,4,16
1.59112013082338e+15,-35,-41,-70,-69,-40,-40,-36,-8
1.59112013084646e+15,-8,-7,15,32,-31,-31,-46,-13
1.59112013084646e+15,28,17,4,15,18,18,3,28
1.59112013084747e+15,-66,-7,9,7,8,8,11,-14
1.59112013084747e+15,21,22,-12,-21,42,42,75,25
1.59112013086007e+15,-3,-22,-2,-7,-47,-47,-43,-10
1.59112013086007e+15,-9,-11,-21,-15,-8,-8,-15,-10
1.59112013086103e+15,29,13,16,15,7,7,-4,8
1.59112013086103e+15,9,6,-20,2,14,14,-3,21
1.59112013088342e+15,-4,-0,7,8,-14,-14,3,10
1.59112013088342e+15,25,11,-3,-7,24,24,10,12
1.59112013088342e+15,-18,-27,-36,-19,-29,-29,-47,-32
1.59112013088342e+15,19,11,20,4,18,18,-3,0
1.59112013089751e+15,20,10,5,1,-16,-16,31,28
1.59112013089751e+15,46,22,-7,6,12,12,50,39
1.59112013090575e+15,-38,-31,-15,-38,-22,-22,-45,-31
1.59112013090575e+15,6,-9,3,5,-3,-3,-67,-8
1.59112013092065e+15,-13,5,10,-3,19,19,18,-11
1.59112013092065e+15,35,16,14,35,-4,-4,24,12
1.59112013092065e+15,58,6,2,-11,-23,-23,-4,22
1.59112013092065e+15,9,-1,-12,2,0,0,-23,4
1.59112013094233e+15,-30,-3,7,-18,14,14,6,-10
1.59112013094233e+15,10,12,21,39,16,16,-10,-16
1.59112013094334e+15,17,14,-6,-1,21,21,16,18
1.59112013094334e+15,-67,-23,0,3,-28,-28,-20,-27
1.59112013096582e+15,22,16,11,13,19,19,10,19
1.59112013096582e+15,5,-20,-26,-58,-22,-22,-3,5
1.59112013096682e+15,11,21,24,34,12,12,20,17
1.59112013096682e+15,48,35,20,17,37,37,53,30
1.59112013098026e+15,-60,-36,-14,0,-51,-51,-55,-38
1.59112013098026e+15,-12,-16,0,-19,-4,-4,-47,-21
1.59112013098026e+15,18,5,-25,-16,12,12,24,9
1.59112013098026e+15,8,7,3,4,2,2,15,1
1.59112013100269e+15,-45,-8,17,23,-2,-2,-34,-28
1.59112013100269e+15,41,11,-11,-26,-2,-2,38,52
1.59112013100322e+15,-100,-40,-2,3,-37,-37,-61,-48
1.59112013100322e+15,23,-0,-22,-16,7,7,17,-10
1.59112013102595e+15,-30,3,8,21,0,0,7,9
1.59112013102595e+15,-7,-11,-19,-18,2,2,-36,-14
1.59112013102595e+15,40,14,9,-6,9,9,31,18
1.59112013102595e+15,35,23,7,16,22,22,31,17
1.59112013104056e+15,28,-7,-6,-10,-24,-24,-22,-1
1.59112013104056e+15,-28,9,15,20,22,22,32,-18
1.59112013104749e+15,-32,-31,6,9,-47,-47,-96,-40
1.59112013104749e+15,-11,-13,7,-3,-24,-24,-22,-11
1.59112013106317e+15,49,17,-9,-26,20,20,52,27
1.59112013106317e+15,-33,1,11,31,8,8,-23,-3
1.59112013106317e+15,23,8,-6,-16,6,6,33,13
1.59112013106317e+15,-22,20,24,12,28,28,48,20
1.59112013108642e+15,-74,-45,-45,-31,-43,-43,-61,-38
1.59112013108642e+15,46,10,28,25,-15,-15,-11,3
1.59112013108642e+15,-7,18,11,3,39,39,41,8
1.59112013108642e+15,-20,-15,2,21,-21,-21,-47,-27
1.5911201310997e+15,24,5,-18,-16,-12,-12,37,30
1.5911201310997e+15,-4,-9,8,8,-2,-2,-35,-41
1.59112013110069e+15,35,11,-10,-16,-2,-2,18,34
1.59112013110069e+15,-42,-15,-12,-16,-14,-14,18,-16
1.59112013112318e+15,18,15,13,10,21,21,18,13
1.59112013112318e+15,8,9,-2,3,17,17,4,18
1.59112013112318e+15,5,-5,3,-4,-24,-24,12,-14
1.59112013112318e+15,25,6,7,18,2,2,-38,7
1.59112013114615e+15,10,2,22,3,-3,-3,-22,11
1.59112013114615e+15,26,8,-3,-19,-11,-11,60,5
1.59112013114719e+15,-12,6,11,22,35,35,-28,-22
1.59112013114719e+15,-12,-11,-30,-34,-46,-46,34,50
1.59112013116101e+15,-26,-6,-7,9,17,17,-22,-26
1.59112013116101e+15,35,-7,2,-14,-39,-39,-32,5
1.59112013116195e+15,-103,12,-4,21,70,70,49,-1
1.59112013116195e+15,22,-28,-4,4,-39,-39,-110,-57
1.59112013119099e+15,31,-2,-11,-22,-25,-25,30,4
1.59112013119099e+15,-61,-15,-10,-1,5,5,-15,-16
1.591120131192e+15,72,35,22,19,23,23,50,49
1.591120131192e+15,47,20,-18,-37,32,32,72,43
1.59112013121425e+15,-80,-42,-28,-28,-34,-34,-41,-61
1.59112013121425e+15,5,-15,-9,-4,-11,-11,-61,-28
1.5911201312146e+15,1,13,6,36,10,10,8,2
1.5911201312146e+15,-14,-5,-7,-10,-8,-8,-9,-5
1.59112013122096e+15,38,12,3,18,1,1,-5,27
1.59112013122096e+15,21,13,-10,-19,15,15,82,9
1.59112013122197e+15,41,-2,15,5,-19,-19,-52,5
1.59112013122197e+15,-7,3,-14,-11,18,18,15,4
1.5911201312422e+15,43,24,40,27,2,2,29,7
1.5911201312422e+15,-77,-21,-6,-2,-7,-7,-45,-11
1.59112013124319e+15,53,-2,1,-12,-8,-8,-22,-12
1.59112013124319e+15,-17,22,-1,0,25,25,82,41
1.59112013126588e+15,18,-13,-10,-15,-13,-13,-48,-16
1.59112013126588e+15,50,21,12,13,31,31,16,14
1.59112013126688e+15,25,-0,-13,-6,-11,-11,-1,-1
1.59112013126688e+15,-85,-57,-10,-8,-66,-66,-98,-76
1.59112013128076e+15,49,14,7,4,24,24,7,-17
1.59112013128076e+15,5,33,15,10,39,39,89,52
1.5911201312871e+15,-29,-11,-2,10,-25,-25,0,-17
1.5911201312871e+15,96,18,-16,-20,33,33,-22,14
1.5911201313032e+15,-83,8,3,0,33,33,53,18
1.5911201313032e+15,-100,-37,-21,0,-35,-35,-45,-36
1.5911201313032e+15,35,-8,12,-19,-36,-36,-26,1
1.5911201313032e+15,4,21,25,40,23,23,15,7
1.59112013132635e+15,2,-16,11,-6,15,15,-81,-57
1.59112013132635e+15,73,19,-22,-35,-18,-18,82,84
1.59112013132728e+15,12,20,-3,15,17,17,41,30
1.59112013132728e+15,-59,-5,20,30,-7,-7,1,-21
1.59112013134073e+15,83,17,-14,-17,9,9,14,45
1.59112013134073e+15,-128,-55,-20,-16,-12,-12,-85,-111
1.59112013134073e+15,44,-16,-34,-35,-26,-26,-42,-4
1.59112013134073e+15,79,23,20,22,0,0,21,23
1.59112013136316e+15,38,21,1,3,9,9,35,41
1.59112013136316e+15,13,8,-7,-4,2,2,31,3
1.59112013136316e+15,-15,-10,-15,-10,-5,-5,-16,-8
1.59112013136316e+15,-53,-14,19,19,11,11,-67,-44
1.5911201313868e+15,-44,-12,3,-7,-26,-26,16,-10
1.5911201313868e+15,54,-3,-3,13,-30,-30,-60,13
1.5911201313868e+15,-128,-24,-33,-18,27,27,15,-47
1.5911201313868e+15,21,-1,11,-3,-13,-13,8,-30
1.59112013140047e+15,56,9,4,3,11,11,-17,-6
1.59112013140047e+15,-33,-6,-4,-5,-5,-5,7,10
1.59112013140069e+15,-33,-12,5,-7,-32,-32,-2,1
1.59112013140069e+15,31,10,-8,-41,32,32,29,21
1.59112013142315e+15,-15,-14,-23,-8,-15,-15,-11,-23
1.59112013142315e+15,87,19,29,64,-17,-17,-32,-16
1.59112013142315e+15,-18,-7,-18,-42,6,6,15,4
1.59112013142315e+15,-106,-7,-4,22,31,31,1,-24
1.59112013146075e+15,92,23,7,4,-26,-26,31,53
1.59112013146075e+15,-22,6,-4,-3,25,25,25,8
1.59112013147001e+15,-47,-12,20,14,-8,-8,-25,-24
1.59112013147001e+15,80,20,-11,-29,-5,-5,57,52
1.5911201314707e+15,-20,-12,-17,-10,-14,-14,-14,10
1.5911201314707e+15,64,34,33,25,48,48,14,2
1.59112013147171e+15,30,-15,0,-8,-48,-48,-32,1
1.59112013147171e+15,113,35,-1,-4,8,8,49,66
1.59112013148311e+15,-87,-28,10,-1,-16,-16,-51,-42
1.59112013148311e+15,-24,2,-24,-19,18,18,48,11
1.59112013148311e+15,1,-10,0,-1,-19,-19,-36,-4
1.59112013148311e+15,-39,-22,19,14,1,1,-83,-86
1.5911201315062e+15,51,23,-20,-12,-2,-2,64,77
1.5911201315062e+15,-27,-27,-15,-30,-41,-41,-22,-9
1.5911201315062e+15,36,39,21,24,54,54,58,43
1.5911201315062e+15,45,14,2,5,-8,-8,23,26
1.59112013154509e+15,-56,-30,1,-16,-11,-11,-68,-52
1.59112013154509e+15,10,22,39,25,28,28,19,4
1.59112013154509e+15,98,-5,-67,-67,-37,-37,35,34
1.59112013154509e+15,-128,-27,1,8,-2,-2,-6,-59
1.5911201315471e+15,104,58,51,56,72,72,26,9
1.5911201315471e+15,-64,-60,-29,-30,-90,-90,-96,-53
1.5911201315499e+15,-17,-0,5,8,-4,-4,12,18
1.5911201315499e+15,28,-4,-18,-26,-4,-4,-20,4
1.59112013156572e+15,-27,11,0,7,29,29,42,4
1.59112013156572e+15,101,41,22,21,16,16,66,42
1.59112013156572e+15,-71,-17,-13,-1,-1,-1,-16,-42
1.59112013156572e+15,71,-4,-12,-24,-16,-16,-10,10
1.59112013157971e+15,-7,13,-9,-17,16,16,41,37
1.59112013157971e+15,29,-23,-18,-23,-45,-45,-69,-10
1.59112013158822e+15,-8,6,32,26,16,16,-30,-12
1.59112013158822e+15,43,24,18,38,6,6,29,28
1.59112013160321e+15,-8,6,-1,17,13,13,7,-7
1.59112013160321e+15,-81,-8,19,24,29,29,-21,-51
1.59112013160321e+15,72,20,-6,-9,11,11,21,33
1.59112013160321e+15,-105,-37,-40,-43,-29,-29,5,-10
1.59112013162467e+15,-63,-40,23,19,-49,-49,-111,-76
1.59112013162467e+15,101,29,11,12,-3,-3,17,59
1.59112013162567e+15,-5,6,24,43,14,14,-19,-40
1.59112013162567e+15,-21,-1,-9,-18,17,17,-7,19
1.59112013164846e+15,59,42,8,20,23,23,114,54
1.59112013164846e+15,-60,-8,-13,-8,13,13,29,-30
1.59112013164846e+15,-36,-34,-15,-53,-37,-37,-42,3
1.59112013164846e+15,82,11,-9,-24,3,3,-7,25
1.59112013166308e+15,-128,-59,-24,-54,-48,-48,-59,-80
1.59112013166308e+15,127,68,38,87,78,78,-2,63
1.59112013166308e+15,-62,-13,-29,13,-5,-5,38,-60
1.59112013166308e+15,8,-18,-16,-11,-32,-32,-43,-10
1.59112013168606e+15,-39,-31,-14,-17,-15,-15,-37,-38
1.59112013168606e+15,-49,-20,-24,-107,4,4,4,12
1.59112013168606e+15,53,40,33,101,6,6,19,48
1.59112013168606e+15,-38,5,14,5,25,25,23,-7
1.59112013170807e+15,69,16,-9,-14,24,24,7,14
1.59112013170807e+15,-32,-20,-2,4,-33,-33,-18,-22
1.59112013170907e+15,-15,-9,-11,-27,13,13,-8,-25
1.59112013170907e+15,0,3,12,32,-15,-15,-15,-15
1.59112013173098e+15,66,14,-16,-6,-5,-5,42,40
1.59112013173098e+15,1,12,21,16,31,31,27,-25
1.59112013173098e+15,-1,5,-11,-28,-6,-6,35,68
1.59112013173098e+15,-58,-36,-18,-14,-29,-29,-57,-60
1.59112013175416e+15,-37,-1,4,36,13,13,-23,-25
1.59112013175416e+15,91,30,-9,0,28,28,36,25
1.59112013176925e+15,61,6,15,14,-17,-17,5,-9
1.59112013176925e+15,101,24,2,-23,29,29,18,23
1.59112013177125e+15,-83,-61,-53,-52,-75,-75,-39,-43
1.59112013177125e+15,-119,-13,29,47,17,17,-35,-76
1.59112013177237e+15,57,34,9,51,19,19,26,23
1.59112013177237e+15,34,32,2,33,3,3,39,85
1.59112013178314e+15,9,4,21,32,4,4,-11,-19
1.59112013178314e+15,50,-11,-44,-63,-7,-7,7,16
1.59112013178314e+15,-9,-31,-2,-39,-43,-43,-96,-24
1.59112013178314e+15,42,10,-4,-5,-2,-2,26,17
1.59112013181351e+15,9,24,12,21,43,43,36,22
1.59112013181351e+15,-8,-14,0,-57,-41,-41,4,43
1.59112013181351e+15,92,28,7,27,16,16,16,13
1.59112013181351e+15,84,32,54,44,32,32,-20,5
1.59112013182777e+15,-71,-55,-69,-72,-60,-60,-24,-21
1.59112013182777e+15,-95,-42,-24,-41,-14,-14,-32,-92
1.59112013183558e+15,61,44,-3,45,35,35,57,61
1.59112013183558e+15,-78,-33,26,26,-41,-41,-76,-92
1.59112013184205e+15,127,34,19,-67,30,30,86,53
1.59112013184205e+15,69,5,-23,46,-23,-23,-43,12
1.59112013184304e+15,-70,-3,-1,-10,71,71,27,-84
1.59112013184304e+15,-70,-12,2,28,-45,-45,10,16
1.59112013186449e+15,58,8,-7,28,-11,-11,-49,4
1.59112013186449e+15,-36,-24,2,-32,-20,-20,-28,-29
1.59112013186554e+15,60,9,-10,-26,6,6,4,23
1.59112013186554e+15,24,6,21,4,21,21,10,-11
1.59112013188843e+15,-22,-29,-40,-67,-4,-4,-14,-55
1.59112013188843e+15,-19,-17,-32,-66,-12,-12,27,5
1.59112013188843e+15,-52,16,23,33,24,24,30,32
1.59112013188843e+15,-75,-50,-34,-65,-66,-66,-71,8
1.59112013190325e+15,43,26,18,37,11,11,18,24
1.59112013190325e+15,127,67,54,121,25,25,67,49
1.59112013190325e+15,-128,-57,-8,-95,-29,-29,-39,-58
1.59112013190325e+15,90,29,-8,61,9,9,14,25
1.59112013192485e+15,47,1,15,-26,-3,-3,-23,16
1.59112013192485e+15,-117,-34,-20,-88,1,1,-9,1
1.59112013192586e+15,-74,8,2,93,12,12,-14,-35
1.59112013192586e+15,71,10,21,5,-8,-8,-8,-28
1.59112013194852e+15,0,20,1,-2,36,36,48,31
1.59112013194852e+15,36,5,12,9,6,6,-25,-1
1.59112013194957e+15,54,-1,5,-43,-39,-39,35,6
1.59112013194957e+15,-82,-8,-24,21,29,29,9,-24
1.59112013196266e+15,71,20,-8,-59,14,14,50,78
1.59112013196266e+15,-58,-27,-19,-25,-35,-35,-2,-13
1.59112013196366e+15,66,17,-5,5,6,6,8,28
1.59112013196366e+15,-93,-35,-33,36,-53,-53,-65,-29
1.59112013198605e+15,61,20,35,4,26,26,19,-4
1.59112013198605e+15,-73,-44,-20,-77,-15,-15,-61,-29
1.5911201320007e+15,-89,-20,-21,-48,12,12,56,-15
1.5911201320007e+15,74,22,4,-5,-15,-15,30,28
1.59112013200793e+15,41,37,25,124,7,7,-8,2
1.59112013200793e+15,80,34,10,105,-9,-9,10,7
1.59112013200894e+15,54,16,27,3,31,31,-27,10
1.59112013200894e+15,-21,-4,-10,-39,23,23,31,-26
1.59112013202306e+15,-43,-20,-10,10,-32,-32,-33,-14
1.59112013202306e+15,65,3,1,-57,2,2,7,31
1.59112013202306e+15,-1,4,-1,35,7,7,-4,-1
1.59112013202306e+15,-70,-52,-18,-103,-40,-40,-25,-22
1.59112013204563e+15,-7,-12,-4,-19,10,10,-43,-3
1.59112013204563e+15,16,30,56,21,35,35,4,4
1.59112013204563e+15,-84,-20,-53,50,-30,-30,-22,-47
1.59112013204563e+15,121,73,12,52,100,100,92,36
1.5911201320684e+15,-31,-65,-67,-43,-104,-104,-73,-58
1.5911201320684e+15,7,-53,14,-119,-19,-19,-128,-12
1.5911201320692e+15,87,63,38,47,30,30,80,71
1.5911201320692e+15,-26,35,35,127,74,74,-39,-14
1.59112013208223e+15,-10,-20,-32,-69,-65,-65,88,16
1.59112013208223e+15,-26,-15,1,-56,24,24,-43,13
1.59112013209068e+15,29,-10,22,-7,9,9,-66,-59
1.59112013209068e+15,-64,8,-23,7,-61,-61,72,84
1.5911201321061e+15,69,49,46,127,27,27,-29,21
1.5911201321061e+15,-4,13,-4,20,36,36,16,0
1.59112013211321e+15,-6,-45,-21,-124,-30,-30,-46,-8
1.59112013211321e+15,-24,-53,-31,-110,-43,-43,-1,-38
1.59112013212095e+15,-2,2,37,-45,26,26,-100,11
1.59112013212095e+15,-10,25,-25,127,-17,-17,80,-28
1.59112013212788e+15,-83,-47,-31,-79,7,7,-56,5
1.59112013212788e+15,48,-37,5,-128,-31,-31,-86,-16
1.59112013214234e+15,-68,1,-3,85,8,8,23,-59
1.59112013214234e+15,47,49,28,122,5,5,23,35
1.59112013214334e+15,122,59,-3,60,74,74,71,13
1.59112013214334e+15,4,-54,-47,-82,-79,-79,-41,-33
1.59112013215736e+15,-111,-29,-13,-100,15,15,69,-21
1.59112013215736e+15,53,34,6,25,10,10,54,45
1.59112013216479e+15,64,6,22,50,-27,-27,-49,-71
1.59112013216479e+15,-40,64,21,127,72,72,119,44
1.59112013218025e+15,22,-9,-8,0,-5,-5,-63,11
1.59112013218025e+15,60,4,-19,-26,0,0,29,28
1.59112013218025e+15,-81,-30,-30,-95,-13,-13,54,28
1.59112013218025e+15,-35,-65,2,-112,-61,-61,-117,-93
1.59112013219551e+15,28,38,0,79,71,71,21,-3
1.59112013219551e+15,-13,7,-6,17,-16,-16,24,29
1.5911201322025e+15,10,1,23,33,-47,-47,28,-31
1.5911201322025e+15,33,16,-13,-15,46,46,17,16
1.59112013221748e+15,-29,-11,37,36,-15,-15,-82,-53
1.59112013221748e+15,8,-15,-44,-55,-25,-25,11,44
1.59112013222464e+15,73,25,16,-3,21,21,42,19
1.59112013222464e+15,-106,-29,-12,-15,-17,-17,-4,-39
1.5911201322416e+15,6,-1,-2,0,-11,-11,-13,33
1.5911201322416e+15,-7,-15,14,18,20,20,-117,-71
1.59112013224788e+15,-18,-4,-26,-32,-27,-27,56,44
1.59112013224788e+15,104,53,35,41,97,97,20,-18
1.59112013226264e+15,-20,-12,3,-30,-78,-78,13,61
1.59112013226264e+15,-128,-49,-29,14,-35,-35,-38,-92
1.59112013226363e+15,43,-4,2,-22,-9,-9,-39,21
1.59112013226363e+15,45,31,31,49,33,33,1,22
1.59112013228604e+15,-71,3,-2,21,37,37,34,-42
1.59112013228604e+15,27,1,-16,-22,-4,-4,25,15
1.5911201322923e+15,-38,-22,-3,-36,-21,-21,-38,-4
1.5911201322923e+15,26,27,27,46,16,16,12,30
1.59112013230796e+15,12,3,-5,4,13,13,0,-22
1.59112013230796e+15,-30,-17,-9,-27,-26,-26,-16,0
1.59112013230885e+15,1,-4,19,20,-8,-8,-55,-10
1.59112013230885e+15,33,4,14,-18,-3,-3,1,14
1.5911201323307e+15,26,45,10,21,57,57,117,40
1.5911201323307e+15,-15,-14,-18,-11,-23,-23,20,-38
1.5911201323317e+15,-2,-24,17,-12,-49,-49,-91,-6
1.5911201323317e+15,36,6,-5,5,-4,-4,-3,4
1.59112013234637e+15,-4,-8,-19,-38,3,3,-7,7
1.59112013234637e+15,-30,16,10,2,41,41,70,5
1.59112013234744e+15,18,13,-10,19,14,14,2,20
1.59112013234744e+15,6,-11,-15,-4,-28,-28,-12,2
1.59112013236815e+15,76,26,6,-15,-7,-7,34,88
1.59112013236815e+15,-71,-20,-6,6,-3,-3,-15,-55
1.59112013237553e+15,1,-16,-13,-15,-24,-24,-36,-4
1.59112013237553e+15,44,7,-5,1,1,1,4,14
1.59112013238304e+15,17,5,5,1,12,12,-7,-8
1.59112013238304e+15,30,15,-1,-3,9,9,23,26
1.59112013238304e+15,-11,36,35,46,46,46,70,39
1.59112013238304e+15,-63,-33,-57,-51,-24,-24,-6,-21
1.59112013240599e+15,-5,-23,21,-6,-41,-41,-64,-44
1.59112013240599e+15,38,18,-7,8,9,9,19,33
1.59112013241338e+15,12,-5,-7,5,-8,-8,-38,-7
1.59112013241338e+15,32,21,23,10,7,7,46,32
1.59112013242804e+15,-27,2,0,3,14,14,19,-4
1.59112013242804e+15,41,-14,4,-4,-9,-9,-125,-7
1.59112013242874e+15,-25,24,4,17,30,30,125,-6
1.59112013242874e+15,10,-5,-33,-58,10,10,7,29
1.59112013244296e+15,-35,-28,-8,23,-38,-38,-55,-66
1.59112013244296e+15,12,2,4,-1,-1,-1,-6,5
1.59112013244296e+15,20,-4,0,2,2,2,-29,-31
1.59112013244296e+15,-22,-10,9,5,-3,-3,-23,-24
1.59112013246548e+15,19,14,5,29,10,10,12,-4
1.59112013246548e+15,-25,11,24,33,29,29,13,-37
1.59112013246617e+15,-9,-21,-22,-24,-40,-40,-28,12
1.59112013246617e+15,-67,-3,9,26,1,1,20,-16
1.59112013248792e+15,33,7,-19,-46,28,28,17,34
1.59112013248792e+15,-33,-33,-3,-31,-36,-36,-66,-42
1.59112013248893e+15,-37,-13,-2,-6,-11,-11,-8,-11
1.59112013248893e+15,13,15,-22,16,16,16,24,17
1.59112013250242e+15,22,20,19,26,22,22,11,16
1.59112013250242e+15,3,-4,-20,-20,-19,-19,31,9
1.59112013250957e+15,-13,-10,-11,-6,4,4,-48,-9
1.59112013250957e+15,1,-4,24,17,-10,-10,-36,-22
1.59112013255003e+15,-37,-6,-16,-15,-8,-8,45,8
1.59112013255003e+15,33,18,11,15,38,38,-13,-7
1.59112013255003e+15,7,-17,-20,-15,-41,-41,-15,-12
1.59112013255003e+15,28,3,1,-24,-15,-15,20,34
1.59112013255182e+15,-83,-25,3,1,-9,-9,-43,-42
1.59112013255182e+15,39,23,-9,-13,20,20,78,40
1.59112013255571e+15,-10,6,4,32,13,13,-21,-13
1.59112013255571e+15,7,13,15,28,18,18,6,-5
1.59112013257134e+15,27,-6,-8,-15,-23,-23,-9,6
1.59112013257134e+15,-12,12,10,-9,23,23,38,23
1.59112013257134e+15,16,-15,-1,7,-25,-25,-62,-21
1.59112013257134e+15,-8,-23,-30,-40,-25,-25,-23,-21
1.59112013258536e+15,-18,-5,-8,-13,5,5,1,12
1.59112013258536e+15,-82,-16,-7,3,-3,-3,5,-30
1.59112013259295e+15,-11,4,-17,-24,15,15,33,17
1.59112013259295e+15,-25,4,20,33,5,5,2,-21
1.59112013260833e+15,51,18,0,-2,22,22,21,13
1.59112013260833e+15,17,-11,-9,-21,-50,-50,4,25
1.59112013260928e+15,16,-4,-1,-5,-5,-5,-28,-7
1.59112013260928e+15,-13,4,12,5,6,6,14,-2
1.59112013262183e+15,5,-16,-7,-5,-25,-25,-43,-23
1.59112013262183e+15,32,14,11,22,-3,-3,13,22
1.59112013263052e+15,-7,22,-4,4,47,47,44,18
1.59112013263052e+15,19,-18,7,12,-54,-54,-66,-4
1.59112013265389e+15,-26,-8,-35,-24,12,12,2,-11
1.59112013265389e+15,3,-4,3,5,-12,-12,-17,-4
1.59112013265389e+15,-8,5,2,-13,0,0,34,22
1.59112013265389e+15,-7,-6,5,13,-3,-3,-40,-24
1.59112013267573e+15,21,9,20,-5,6,6,10,7
1.59112013267573e+15,4,10,6,17,11,11,5,-5
1.59112013267673e+15,2,-15,-12,-30,-20,-20,-13,-9
1.59112013267673e+15,-36,12,18,20,33,33,23,-7
1.59112013269093e+15,-7,-12,-27,-26,-14,-14,-6,10
1.59112013269093e+15,-31,-13,6,25,-20,-20,-22,-39
1.59112013269093e+15,16,-0,1,-15,-5,-5,-10,8
1.59112013269093e+15,36,23,2,-2,28,28,54,21
1.59112013270567e+15,20,27,18,24,21,21,41,47
1.59112013270567e+15,-30,-7,-11,5,1,1,-8,-19
1.59112013270567e+15,-42,-25,-5,23,-28,-28,-94,-41
1.59112013270567e+15,-4,-26,-14,-24,-28,-28,-59,-19
1.59112013272785e+15,5,25,15,28,37,37,42,-1
1.59112013272785e+15,10,-10,-15,-41,-18,-18,3,17
1.59112013272885e+15,7,18,24,28,14,14,30,19
1.59112013272885e+15,31,23,-11,-8,35,35,51,27
1.59112013274158e+15,-3,-32,-13,-26,-37,-37,-70,-47
1.59112013274158e+15,27,24,20,4,27,27,53,36
1.5911201327505e+15,-71,-41,-14,-2,-42,-42,-81,-55
1.5911201327505e+15,22,22,15,18,19,19,33,32
1.59112013276536e+15,-11,5,9,24,5,5,15,1
1.59112013276536e+15,24,4,6,-10,-2,-2,-9,15
1.5911201327731e+15,15,7,-10,-18,14,14,36,8
1.5911201327731e+15,-15,15,3,20,20,20,38,14
1.5911201327955e+15,9,-14,7,-4,-27,-27,-56,-13
1.5911201327955e+15,16,-2,-33,-23,0,0,20,-5
1.5911201327965e+15,-21,-1,11,10,-5,-5,-9,5
1.5911201327965e+15,6,-15,-15,-26,-18,-18,-30,-7
1.59112013281169e+15,-41,-3,2,14,5,5,14,-18
1.59112013281169e+15,31,1,5,-22,10,10,-7,-6
1.59112013281169e+15,61,22,-2,11,13,13,34,21
1.59112013281169e+15,-82,-27,-23,-9,-16,-16,-45,-24
1.59112013282454e+15,-58,-19,3,-16,-8,-8,-29,-22
1.59112013282454e+15,31,12,1,10,10,10,35,-4
1.59112013282555e+15,23,15,-11,-10,9,9,51,32
1.59112013282555e+15,33,-14,7,11,-41,-41,-51,-21
1.59112013284906e+15,3,11,-2,-8,22,22,31,15
1.59112013284906e+15,-33,-32,4,-39,-30,-30,-62,-39
1.59112013284992e+15,43,31,26,24,34,34,42,23
1.59112013284992e+15,-57,-8,-4,-1,9,9,8,-22
1.59112013287071e+15,13,2,-5,8,-9,-9,-9,-3
1.59112013287071e+15,-17,5,6,35,11,11,-11,-11
1.59112013287171e+15,10,-1,2,-23,-1,-1,7,1
1.59112013287171e+15,-23,-11,-5,1,-9,-9,-22,-9
1.59112013288542e+15,20,3,-3,-9,-6,-6,20,12
1.59112013288542e+15,30,19,8,9,18,18,19,34
1.59112013288542e+15,-28,-30,-17,-18,-39,-39,-51,-28
1.59112013288542e+15,-48,-7,-6,-1,-6,-6,25,5
1.59112013290787e+15,-32,-9,-18,-39,19,19,6,-15
1.59112013290787e+15,-58,12,23,37,27,27,32,-1
1.5911201329089e+15,-10,-30,-38,4,-49,-49,-69,-42
1.5911201329089e+15,67,40,10,8,43,43,73,51
1.5911201329311e+15,-28,-48,-5,-21,-67,-67,-120,-54
1.5911201329311e+15,48,2,-11,-12,-22,-22,-10,26
1.5911201329321e+15,-67,3,16,19,32,32,18,-23
1.5911201329321e+15,28,17,14,7,14,14,26,15
1.59112013294495e+15,33,9,3,11,-2,-2,14,6
1.59112013294495e+15,-82,-28,-19,-13,-14,-14,-27,-23
1.59112013294577e+15,23,13,19,-35,19,19,21,15
1.59112013294577e+15,50,2,-10,33,-17,-17,-37,-11
1.59112013296783e+15,-18,8,-2,5,3,3,48,28
1.59112013296783e+15,49,5,0,4,-2,-2,1,-5
1.59112013296883e+15,11,2,-10,-31,12,12,15,15
1.59112013296883e+15,32,5,12,-6,1,1,2,-5
1.59112013299102e+15,32,15,9,7,6,6,3,14
1.59112013299102e+15,-75,-30,-23,1,-29,-29,-32,-43
1.59112013299669e+15,12,2,-4,19,-5,-5,0,-4
1.59112013299669e+15,-7,-7,-6,-30,5,5,6,-12
1.59112013300545e+15,29,-3,6,8,-12,-12,-61,12
1.59112013300545e+15,81,8,18,-15,-7,-7,-12,-8
1.59112013300618e+15,-3,13,12,22,9,9,32,21
1.59112013300618e+15,-49,-9,0,-7,4,4,-5,-35
1.59112013302824e+15,-53,-12,-16,17,-29,-29,8,0
1.59112013302824e+15,15,11,-13,-4,10,10,9,38
1.5911201330292e+15,7,-0,1,4,0,0,-8,-6
1.5911201330292e+15,51,12,-2,-11,2,2,22,21
1.59112013305151e+15,30,17,3,-1,24,24,37,9
1.59112013305151e+15,-59,-1,8,6,23,23,2,-2
1.59112013305151e+15,-21,-30,-11,1,-50,-50,-53,-42
1.59112013305151e+15,5,-1,-14,-21,-16,-16,11,37
1.59112013306512e+15,30,15,0,-13,31,31,25,8
1.59112013306512e+15,-10,-10,-11,-2,-25,-25,-7,-1
1.59112013306612e+15,25,-6,-5,-37,-3,-3,-23,-3
1.59112013306612e+15,-41,-0,8,34,-9,-9,3,10
1.59112013308897e+15,17,1,0,-20,15,15,-4,-9
1.59112013308897e+15,16,26,10,32,23,23,55,15
1.59112013308897e+15,-3,8,8,6,26,26,-8,4
1.59112013308897e+15,5,-28,-28,-51,-39,-39,-38,-17
1.59112013311122e+15,21,-2,14,22,-43,-43,-15,-1
1.59112013311122e+15,12,6,5,-2,14,14,7,-5
1.59112013311191e+15,19,16,-3,10,9,9,31,34
1.59112013311191e+15,19,17,25,26,31,31,-8,2
1.59112013312489e+15,-58,-11,-29,-25,-3,-3,44,0
1.59112013312489e+15,7,-23,1,-14,-34,-34,-82,-22
1.59112013312589e+15,10,12,7,2,21,21,37,-2
1.59112013312589e+15,2,5,-24,-18,12,12,27,18
1.59112013314867e+15,-12,-12,-5,10,-19,-19,-33,-18
1.59112013314867e+15,14,-0,18,-3,-1,-1,-11,-2
1.59112013314941e+15,17,12,-16,3,8,8,8,29
1.59112013314941e+15,-18,-5,-5,3,-6,-6,-14,-8
1.59112013316993e+15,-31,-9,8,3,-1,-1,-22,-20
1.59112013316993e+15,14,30,-1,25,33,33,61,28
1.59112013317791e+15,-11,-32,-8,-24,-44,-44,-44,-34
1.59112013317791e+15,1,-6,8,6,-19,-19,-46,10
1.59112013320093e+15,26,16,-3,5,23,23,53,-11
1.59112013320093e+15,23,-6,-14,-34,-16,-16,-5,22
1.59112013320093e+15,-64,2,17,19,20,20,19,-13
1.59112013320093e+15,32,3,-15,-15,1,1,5,9
1.59112013320734e+15,-1,3,25,19,-7,-7,-17,5
1.59112013320734e+15,7,-8,-17,-2,1,1,-29,-30
1.59112013321566e+15,13,3,-9,-4,-7,-7,34,4
1.59112013321566e+15,10,8,39,-5,28,28,-15,-5
1.59112013323874e+15,46,25,-25,-12,8,8,42,81
1.59112013323874e+15,-12,-22,-2,5,-41,-41,-33,-36
1.59112013323901e+15,-29,-2,-12,35,-15,-15,-18,8
1.59112013323901e+15,-87,-24,-4,21,-3,-3,-25,-53
1.59112013324472e+15,62,9,-10,-37,23,23,9,11
1.59112013324472e+15,-1,3,0,0,4,4,7,9
1.59112013325365e+15,-32,-14,-8,-16,-7,-7,-19,-12
1.59112013325365e+15,1,21,16,7,20,20,44,37
1.59112013326869e+15,-19,1,7,4,12,12,44,-37
1.59112013326869e+15,-34,-32,-18,-18,-44,-44,-73,-11
1.59112013327061e+15,18,5,17,13,5,5,-16,-5
1.59112013327061e+15,-26,-8,-11,-6,-4,-4,5,-7
1.5911201332909e+15,7,-1,-7,-12,-3,-3,-3,-1
1.5911201332909e+15,105,47,33,24,35,35,58,44
1.59112013329266e+15,-7,-0,-13,-3,7,7,-2,-3
1.59112013329266e+15,-54,-32,-19,-27,-30,-30,-35,-34
1.59112013330476e+15,12,5,-3,8,7,7,-18,18
1.59112013330476e+15,75,27,9,18,21,21,47,-4
1.59112013331329e+15,82,27,10,7,12,12,46,26
1.59112013331329e+15,-78,-30,-18,-15,-17,-17,-58,-18
1.59112013332896e+15,33,18,14,12,9,9,33,17
1.59112013332896e+15,-19,-18,-3,-20,-33,-33,-11,-31
1.59112013333467e+15,39,-9,-25,-2,-9,-9,-38,-26
1.59112013333467e+15,85,25,13,7,-2,-2,44,30
1.5911201333512e+15,-11,-11,-3,-8,-5,-5,-16,-20
1.5911201333512e+15,-27,-3,-22,-2,6,6,9,8
1.59112013335257e+15,-53,-4,28,-23,14,14,-4,1
1.59112013335257e+15,28,1,-8,5,-18,-18,8,-12
1.59112013336503e+15,47,19,-4,17,26,26,9,11
1.59112013336503e+15,-98,-26,-17,-20,-10,-10,-25,8
1.59112013337297e+15,-9,-9,-13,-30,-13,-13,10,6
1.59112013337297e+15,2,-2,-1,14,-5,-5,-13,-15
1.59112013338794e+15,-30,-6,15,11,-12,-12,-5,-18
1.59112013338794e+15,-24,-6,15,6,4,4,-36,-15
1.59112013338994e+15,11,10,2,-10,9,9,35,22
1.59112013338994e+15,90,5,3,1,-9,-9,-45,-7
1.59112013341065e+15,-13,9,11,12,-4,-4,24,32
1.59112013341065e+15,-104,-21,-24,-30,1,1,38,-23
1.59112013342447e+15,0,-14,-10,-6,-8,-8,-43,-27
1.59112013342447e+15,69,23,7,33,11,11,-1,7
1.59112013342548e+15,-16,-22,3,-6,-22,-22,-50,-42
1.59112013342548e+15,73,25,-10,-15,16,16,42,65
1.59112013343311e+15,-9,12,20,18,17,17,24,-7
1.59112013343311e+15,-33,-12,-16,-12,-19,-19,14,0
1.59112013344799e+15,-35,-7,-4,3,7,7,-21,-10
1.59112013344799e+15,-18,-3,11,16,-4,-4,-14,-17
1.5911201334555e+15,6,1,-9,-4,2,2,17,-11
1.5911201334555e+15,-59,-18,-7,-15,-8,-8,-9,-14
1.59112013347918e+15,12,12,0,15,9,9,21,-1
1.59112013347918e+15,56,7,2,-3,0,0,-13,9
1.59112013348552e+15,-4,-9,3,-2,-15,-15,-28,-6
1.59112013348552e+15,4,6,-1,-13,8,8,28,21
1.59112013348552e+15,5,-15,-11,-43,-26,-26,-6,3
1.59112013348552e+15,-34,-8,22,44,-4,-4,-64,-34
1.59112013350978e+15,-75,-30,-26,-24,-25,-25,-22,-12
1.59112013350978e+15,-21,-0,2,10,14,14,-16,-12
1.59112013351078e+15,26,22,13,15,22,22,35,15
1.59112013351078e+15,32,12,-3,6,15,15,22,-2
1.59112013353082e+15,-48,-22,11,-16,-23,-23,-32,-21
1.59112013353082e+15,10,6,-5,-6,7,7,12,9
1.59112013353151e+15,-9,-3,-20,2,2,2,-5,-4
1.59112013353151e+15,20,7,5,16,-9,-9,-6,19
1.59112013354607e+15,24,4,21,2,14,14,-17,-20
1.59112013354607e+15,-32,-1,-28,-19,-4,-4,62,12
1.59112013355392e+15,10,-10,7,-2,-7,-7,-48,-23
1.59112013355392e+15,43,23,11,3,0,0,51,49
1.59112013355501e+15,28,9,-4,12,6,6,14,3
1.59112013355501e+15,4,-21,-3,-34,-19,-19,-59,-17
1.59112013356812e+15,-7,7,0,7,6,6,31,-2
1.59112013356812e+15,-89,-33,-11,-8,-6,-6,-47,-64
1.59112013357008e+15,51,19,-1,5,-3,-3,26,47
1.59112013357008e+15,62,33,30,26,39,39,17,12
1.59112013359143e+15,38,-7,-27,-5,-41,-41,-9,8
1.59112013359143e+15,-33,-4,9,-11,0,0,6,2
1.59112013359262e+15,42,19,-11,14,27,27,17,13
1.59112013359262e+15,-30,-5,10,-4,-8,-8,11,-3
1.59112013361333e+15,-78,-33,-3,-5,-23,-23,-64,-37
1.59112013361333e+15,39,8,-5,-10,4,4,17,1
1.59112013361533e+15,-35,-12,-8,-40,-3,-3,-1,6
1.59112013361533e+15,56,21,9,26,0,0,31,15
1.59112013362847e+15,-22,-2,6,13,-2,-2,-18,-4
1.59112013362847e+15,53,17,-2,11,10,10,20,21
1.59112013362997e+15,4,-5,6,21,-8,-8,-30,-29
1.59112013362997e+15,-89,-26,-22,-34,-1,-1,-3,-13
1.59112013365155e+15,-28,1,16,-17,13,13,29,-1
1.59112013365155e+15,-1,-17,-11,-3,-43,-43,-32,-4
1.59112013366504e+15,-13,20,3,15,39,39,45,14
1.59112013366504e+15,26,-4,-6,7,-18,-18,-43,-9
1.59112013366604e+15,-49,-32,-16,-26,-38,-38,-48,-13
1.59112013366604e+15,-11,7,-7,-4,20,20,35,13
1.59112013367321e+15,55,23,5,-24,20,20,49,42
1.59112013367321e+15,-55,-22,3,30,-25,-25,-36,-53
1.59112013368905e+15,21,-5,-6,-10,-1,-1,-36,5
1.59112013368905e+15,-8,-4,-16,-14,5,5,6,-10
1.59112013369494e+15,-61,1,3,29,11,11,12,-8
1.59112013369494e+15,39,3,-11,-23,-11,-11,13,24
1.5911201337112e+15,62,14,13,-6,18,18,-3,0
1.5911201337112e+15,-27,-14,-3,-3,-13,-13,-21,-19
1.59112013373449e+15,12,6,10,14,5,5,-16,1
1.59112013373449e+15,1,-0,-5,-16,0,0,15,9
1.59112013373449e+15,-31,2,0,16,-4,-4,14,1
1.59112013373449e+15,45,19,14,16,15,15,8,8
1.59112013373649e+15,-86,-49,-27,-31,-47,-47,-66,-56
1.59112013373649e+15,30,11,8,17,24,24,-13,6
1.59112013375667e+15,-13,-3,7,-2,-3,-3,-1,10
1.59112013375667e+15,12,6,-1,-6,12,12,40,-36
1.59112013376193e+15,8,-2,-13,7,-22,-22,-2,17
1.59112013376193e+15,-12,5,23,-4,14,14,11,-1
1.5911201337704e+15,25,-3,-13,9,-7,-7,-35,-10
1.5911201337704e+15,-52,1,2,-3,19,19,23,-1
1.59112013378396e+15,58,21,7,27,17,17,-5,23
1.59112013378396e+15,-42,-25,-23,-15,-41,-41,-22,-17
1.59112013380128e+15,87,18,11,-16,3,3,21,31
1.59112013380128e+15,-9,-3,-3,-10,7,7,3,-2
1.59112013380224e+15,-26,-14,1,-5,-24,-24,-17,-17
1.59112013380224e+15,25,30,8,13,32,32,51,41
1.59112013380876e+15,-9,3,-2,2,10,10,17,-10
1.59112013380876e+15,8,-14,-8,-2,-29,-29,-34,-7
1.59112013381448e+15,50,19,1,-33,24,24,42,29
1.59112013381448e+15,-11,-3,8,43,-6,-6,-42,-30
1.59112013383127e+15,-41,14,7,1,40,40,67,0
1.59112013383127e+15,-4,-23,-16,-15,-44,-44,-43,-5
1.59112013383222e+15,-20,3,11,-5,6,6,19,13
1.59112013383222e+15,35,-0,-10,-1,-1,-1,-15,-11
1.59112013385435e+15,37,32,25,40,48,48,-4,20
1.59112013385435e+15,-29,-25,-23,-57,-55,-55,22,17
1.59112013385967e+15,8,-2,12,15,-14,-14,-32,-2
1.59112013385967e+15,-82,-26,-17,-10,-6,-6,-20,-33
1.59112013386864e+15,-13,13,-10,14,13,13,49,21
1.59112013386864e+15,29,16,11,-12,26,26,6,27
1.59112013386964e+15,-48,-21,-12,4,-25,-25,-29,-34
1.59112013386964e+15,-48,-6,-1,0,10,10,0,-13
1.59112013389195e+15,13,20,-7,-12,19,19,68,41
1.59112013389195e+15,45,-10,4,-21,-12,-12,-68,-3
1.59112013389298e+15,20,-13,-13,-26,-38,-38,-29,-7
1.59112013389298e+15,53,24,16,32,31,31,8,10
1.59112013391392e+15,-35,8,11,32,8,8,27,-6
1.59112013391392e+15,57,20,-4,19,-4,-4,31,21
1.59112013391493e+15,-95,-51,-23,-30,-39,-39,-66,-55
1.59112013391493e+15,13,-7,11,-27,-4,-4,-29,-10
1.59112013392932e+15,28,-6,-20,5,-35,-35,-18,11
1.59112013392932e+15,-24,5,15,4,40,40,16,-27
1.591120133935e+15,74,22,9,-10,17,17,33,29
1.591120133935e+15,12,10,-13,20,-13,-13,22,30
1.59112013395095e+15,-34,-15,7,11,-4,-4,-53,-45
1.59112013395095e+15,13,-4,3,14,-13,-13,-37,-15
1.59112013395175e+15,2,8,-7,-10,23,23,43,8
1.59112013395175e+15,-9,-14,-1,-34,-16,-16,-20,-4
1.5911201339741e+15,13,-2,-6,4,-17,-17,-3,12
1.5911201339741e+15,0,11,3,-1,40,40,11,-2
1.5911201339751e+15,4,13,5,2,3,3,60,9
1.5911201339751e+15,54,2,-4,-8,-24,-24,-6,24
1.59112013398803e+15,-49,-31,-16,-27,-21,-21,-43,-44
1.59112013398803e+15,-16,7,9,21,10,10,-11,14
1.59112013399494e+15,14,13,-1,33,3,3,30,-3
1.59112013399494e+15,-2,10,-2,0,19,19,27,8
1.59112013401097e+15,19,-7,8,-22,-12,-12,-3,-11
1.59112013401097e+15,-14,-6,-17,-18,4,4,-12,1
1.59112013401203e+15,-46,-26,-16,-8,-29,-29,-32,-43
1.59112013401203e+15,-50,-2,-6,9,15,15,26,-16
1.59112013403308e+15,-10,-25,-9,-13,-35,-35,-72,-23
1.59112013403308e+15,19,24,20,49,12,12,36,14
1.59112013403481e+15,69,20,-1,-9,11,11,18,33
1.59112013403481e+15,-17,8,9,13,21,21,17,-2
1.59112013404775e+15,-27,-8,-17,-38,-6,-6,23,14
1.59112013404775e+15,-37,-12,0,-2,-19,-19,-1,-3
1.59112013405497e+15,32,16,16,44,5,5,2,-2
1.59112013405497e+15,18,-17,-15,-38,-19,-19,-25,-2
1.59112013407063e+15,24,14,14,-10,21,21,16,8
1.59112013407063e+15,45,19,-4,41,13,13,14,1
1.59112013407264e+15,-22,-26,-11,-44,-33,-33,-42,-1
1.59112013407264e+15,-1,12,15,25,10,10,23,-4
1.59112013409355e+15,-11,-9,-6,-26,9,9,-8,-17
1.59112013409355e+15,12,1,-25,-14,-11,-11,13,31
1.59112013409462e+15,-19,-1,23,44,-6,-6,-51,-20
1.59112013409462e+15,4,44,4,27,72,72,127,28
1.59112013410773e+15,-20,-53,-17,-11,-91,-91,-121,-63
1.59112013410773e+15,20,-9,-8,-26,-12,-12,-5,-13
1.59112013411493e+15,7,22,9,12,39,39,36,41
1.59112013411493e+15,-69,-43,-12,-37,-49,-49,-54,-58
1.59112013413097e+15,0,19,16,47,22,22,22,-2
1.59112013413097e+15,46,-2,-5,-40,-17,-17,-7,28
1.59112013413202e+15,-46,-5,-1,-20,2,2,16,-3
1.59112013413202e+15,26,22,16,65,5,5,11,13
1.59112013416267e+15,62,22,-3,-4,19,19,23,39
1.59112013416267e+15,-51,-9,-5,-6,16,16,11,-35
1.59112013416368e+15,38,7,-8,-1,-8,-8,6,34
1.59112013416368e+15,25,-8,-5,-34,-8,-8,-34,4
1.59112013416806e+15,-2,-7,-2,-9,-37,-37,17,26
1.59112013416806e+15,-5,19,13,11,42,42,41,-9
1.59112013417437e+15,-52,-16,-18,0,-10,-10,-7,-25
1.59112013417437e+15,43,7,4,-15,3,3,11,0
1.59112013419806e+15,1,15,12,33,34,34,-3,-2
1.59112013419806e+15,26,10,3,-6,0,0,9,28
1.59112013419997e+15,32,-29,-12,-40,-35,-35,-71,-22
1.59112013419997e+15,-28,-18,6,2,-32,-32,-47,-24
1.59112013421427e+15,11,20,1,15,2,2,49,44
1.59112013421427e+15,-94,-15,-6,-1,10,10,-14,-22
1.59112013421528e+15,-51,-14,3,14,7,7,-44,-47
1.59112013421528e+15,39,7,-4,-19,-11,-11,35,41
1.59112013422746e+15,-2,10,12,4,26,26,4,-10
1.59112013422746e+15,-4,-16,-17,-10,-34,-34,-3,-2
1.59112013423608e+15,22,8,3,-25,12,12,30,17
1.59112013423608e+15,-23,-15,-18,4,-8,-8,-76,-19
1.59112013425158e+15,-17,-10,4,-19,8,8,-27,-32
1.59112013425158e+15,3,12,15,73,-15,-15,7,-7
1.59112013425258e+15,-45,-24,-35,-65,-5,-5,3,-4
1.59112013425258e+15,22,29,9,0,31,31,74,34
1.59112013427401e+15,17,-2,-5,27,-3,-3,-27,-32
1.59112013427401e+15,30,2,5,-6,-19,-19,22,-9
1.59112013427501e+15,2,-13,-5,22,-26,-26,-28,-30
1.59112013427501e+15,-53,-18,-7,-27,15,15,-17,-23
1.59112013428756e+15,14,12,-3,-32,-10,-10,73,33
1.59112013428756e+15,-13,-23,-15,-8,-22,-22,-65,-28
1.59112013429554e+15,-1,7,10,16,35,35,-7,-6
1.59112013429554e+15,20,7,12,22,-34,-34,16,9
1.59112013431052e+15,0,-0,-6,27,1,1,-30,-1
1.59112013431052e+15,44,26,11,1,31,31,56,32
1.59112013432434e+15,-19,-2,-4,-31,0,0,36,13
1.59112013432434e+15,24,-20,-16,-13,-13,-13,-82,-36
1.59112013434041e+15,-44,3,-7,3,17,17,27,11
1.59112013434041e+15,-49,2,12,31,23,23,-27,-17
1.59112013434901e+15,51,30,-1,35,-10,-10,75,47
1.59112013434901e+15,-54,-36,-16,-25,-21,-21,-44,-52
1.59112013435627e+15,24,2,9,-13,5,5,-7,-2
1.59112013435627e+15,15,2,-10,-4,-9,-9,-3,19
1.59112013435688e+15,-29,-20,-23,-43,-11,-11,10,-25
1.59112013435688e+15,8,-0,11,-1,2,2,-6,-8
1.59112013437096e+15,4,11,-7,-7,26,26,30,29
1.59112013437096e+15,-37,-18,4,-1,-17,-17,-32,-46
1.59112013437196e+15,31,37,25,33,37,37,42,56
1.59112013437196e+15,-37,-10,-7,-3,-22,-22,1,4
1.591120134393e+15,-22,-13,5,-2,13,13,-27,-48
1.591120134393e+15,-11,-18,-16,-52,-24,-24,-19,24
1.59112013439496e+15,72,20,24,20,2,2,-16,3
1.59112013439496e+15,-10,-0,-7,5,-5,-5,0,12
1.59112013440672e+15,-10,19,22,23,30,30,50,-2
1.59112013440672e+15,14,-9,-27,-34,-14,-14,8,4
1.59112013441595e+15,24,1,12,21,-35,-35,-27,-7
1.59112013441595e+15,-13,14,-9,15,41,41,44,16
1.59112013443844e+15,-55,-53,-14,-44,-77,-77,-84,-42
1.59112013443844e+15,-15,-3,4,17,3,3,-34,-26
1.5911201344395e+15,17,23,21,42,47,47,29,7
1.5911201344395e+15,38,1,-25,-53,-2,-2,16,19
1.59112013445319e+15,12,16,-13,-4,46,46,36,14
1.59112013445319e+15,-22,-7,4,-3,-50,-50,14,20
1.59112013445521e+15,-38,-7,-3,36,1,1,-50,-21
1.59112013445521e+15,34,23,18,27,8,8,43,24
1.59112013446741e+15,42,-4,-9,-23,-25,-25,-6,9
1.59112013446741e+15,-12,-8,-8,-21,10,10,-6,-7
1.59112013447541e+15,-24,6,9,-9,19,19,0,8
1.59112013447541e+15,22,-11,-5,26,-48,-48,-35,-19
1.59112013449095e+15,22,1,-12,-19,14,14,28,-4
1.59112013449095e+15,-35,-2,5,-6,14,14,5,-6
1.59112013449197e+15,9,-12,-11,-12,-8,-8,-43,-8
1.59112013449197e+15,14,20,15,-3,26,26,55,24
1.59112013451382e+15,-67,-33,-6,22,-43,-43,-94,-48
1.59112013451382e+15,32,41,23,28,54,54,89,26
1.59112013451463e+15,-16,-34,-43,-55,-41,-41,-20,-29
1.59112013451463e+15,-32,-10,14,28,11,11,-85,-23
1.5911201345271e+15,23,12,0,24,-22,-22,18,28
1.5911201345271e+15,21,21,5,10,38,38,31,24
1.59112013454196e+15,24,10,15,9,10,10,15,-7
1.59112013454196e+15,37,-2,-20,-48,-13,-13,23,26
1.59112013455112e+15,-10,3,-9,1,-4,-4,9,16
1.59112013455112e+15,-6,-43,-8,-76,-4,-4,-86,-68
1.59112013455213e+15,-10,11,-8,25,7,7,21,15
1.59112013455213e+15,28,16,16,72,-29,-29,-1,8
1.59112013457321e+15,1,22,18,32,45,45,27,8
1.59112013457321e+15,48,-10,-25,-26,-53,-53,-28,21
1.59112013458812e+15,3,-14,9,-26,4,4,-53,-25
1.59112013458812e+15,-14,27,1,-26,44,44,108,69
1.59112013458812e+15,-76,-55,-14,-18,-70,-70,-93,-70
1.59112013458812e+15,-16,-3,0,19,9,9,-16,-11
1.59112013459568e+15,20,6,-4,9,-11,-11,17,-6
1.59112013459568e+15,14,1,-3,-6,4,4,10,-17
1.59112013461037e+15,79,22,4,3,26,26,0,25
1.59112013461037e+15,-74,-5,-6,-17,15,15,38,1
1.59112013461237e+15,1,-2,6,30,-33,-33,-31,8
1.59112013461237e+15,-6,-5,-6,1,15,15,-34,-23
1.59112013463335e+15,-14,-19,-4,-51,-54,-54,6,37
1.59112013463335e+15,-15,9,10,73,-2,-2,-21,-10
1.59112013463431e+15,23,18,-7,-13,33,33,65,18
1.59112013463431e+15,0,5,16,-9,15,15,0,1
1.59112013464632e+15,-22,-11,-28,-19,-2,-2,9,-13
1.59112013464632e+15,-28,-5,3,-7,-2,-2,7,-13
1.59112013467097e+15,43,22,5,3,29,29,35,34
1.59112013467097e+15,-37,-22,7,-7,-31,-31,-31,-35
1.59112013467198e+15,24,-18,-12,11,-45,-45,-85,-26
1.59112013467198e+15,34,17,10,-5,39,39,26,2
1.59112013467397e+15,-20,8,8,-36,13,13,62,15
1.59112013467397e+15,3,-15,-21,39,-29,-29,-67,-23
1.5911201346938e+15,-2,44,18,25,62,62,114,52
1.5911201346938e+15,60,-11,-3,-23,-54,-54,-47,31
1.59112013469484e+15,-81,-23,-13,-7,-5,-5,-5,-32
1.59112013469484e+15,4,14,-3,-27,45,45,41,4
1.59112013471607e+15,-67,-39,-14,-36,-44,-44,-57,-42
1.59112013471607e+15,39,27,22,83,26,26,-11,-9
1.59112013471708e+15,24,13,-18,1,1,1,41,34
1.59112013471708e+15,-26,-21,1,-26,-20,-20,-32,-15
1.59112013473092e+15,43,14,17,15,10,10,0,8
1.59112013473092e+15,-35,-10,-4,-30,-10,-10,4,-2
1.59112013473193e+15,10,8,16,21,22,22,-11,-13
1.59112013473193e+15,41,-1,-22,-5,-10,-10,-16,10
1.59112013475436e+15,-70,-2,2,-25,14,14,76,0
1.59112013475436e+15,-10,-17,-15,0,-29,-29,-63,-24
1.59112013475944e+15,-72,-20,-16,12,-19,-19,2,-26
1.59112013475944e+15,-14,4,11,0,14,14,6,-2
1.59112013477611e+15,72,16,31,21,9,9,-18,18
1.59112013477611e+15,-62,-16,-45,-58,9,9,60,-7
1.59112013477711e+15,70,7,16,29,-18,-18,-61,6
1.59112013477711e+15,-12,6,-3,0,15,15,20,-11
1.59112013479923e+15,10,13,14,44,-10,-10,16,7
1.59112013479923e+15,-22,10,1,1,29,29,20,10
1.59112013480023e+15,-22,-18,-18,-27,-25,-25,-17,3
1.59112013480023e+15,16,-15,5,8,-26,-26,-48,-30
1.59112013482096e+15,-40,-3,-8,-3,20,20,9,-12
1.59112013482096e+15,42,16,0,6,7,7,17,30
1.59112013482197e+15,-28,-24,-6,-54,-14,-14,-13,-37
1.59112013482197e+15,22,7,7,30,-9,-9,-9,14
1.59112013483637e+15,12,1,-10,-25,20,20,2,-6
1.59112013483637e+15,80,27,22,34,-5,-5,11,32
1.59112013483685e+15,-31,-10,6,11,-7,-7,-7,-37
1.59112013483685e+15,-27,2,-12,-32,6,6,36,36
1.5911201348511e+15,-16,-28,-27,-8,-36,-36,-43,-36
1.5911201348511e+15,-11,-15,14,-31,2,2,-47,-23
1.5911201348521e+15,38,21,2,24,17,17,18,27
1.5911201348521e+15,-5,-6,-4,8,-41,-41,-8,13
1.59112013487387e+15,22,7,-1,-6,20,20,2,5
1.59112013487387e+15,-2,10,15,9,10,10,30,4
1.59112013487488e+15,13,-20,-32,-14,-30,-30,-68,1
1.59112013487488e+15,-39,-19,-4,-50,5,5,-2,-23
1.59112013490456e+15,-48,2,9,-9,11,11,26,10
1.59112013490456e+15,23,6,-3,46,-12,-12,-13,-10
1.59112013490556e+15,-15,11,25,18,33,33,-9,-8
1.59112013490556e+15,35,10,-5,-6,-17,-17,46,41
1.59112013491055e+15,29,19,-9,-7,37,37,24,30
1.59112013491055e+15,-103,-47,-14,-16,-33,-33,-76,-70
1.59112013491728e+15,40,24,11,26,9,9,43,20
1.59112013491728e+15,-19,7,3,1,24,24,9,16
1.5911201349331e+15,-18,-19,-7,-8,-25,-25,-43,-9
1.5911201349331e+15,18,-3,-11,-22,-29,-29,34,6
1.59112013493514e+15,-12,12,2,11,31,31,40,-6
1.59112013493514e+15,-29,-23,4,-12,-23,-23,-37,-35
1.59112013495619e+15,14,4,-7,6,-4,-4,-5,20
1.59112013495619e+15,-10,-5,-13,-30,4,4,7,5
1.59112013495719e+15,46,9,7,9,-11,-11,-10,17
1.59112013495719e+15,15,18,5,3,47,47,19,10
1.59112013497103e+15,-2,9,23,28,-11,-11,28,-4
1.59112013497103e+15,17,1,-10,23,-16,-16,-23,6
1.59112013498473e+15,-2,4,6,-19,28,28,6,-7
1.59112013498473e+15,5,4,-2,2,-6,-6,18,9
1.59112013499306e+15,13,-2,-16,-13,-1,-1,-2,-7
1.59112013499306e+15,-9,-14,10,3,-27,-27,-23,-19
1.59112013500104e+15,-36,-9,-6,5,-9,-9,-13,-15
1.59112013500104e+15,40,19,10,39,6,6,17,1
1.59112013501626e+15,-15,-4,-14,-24,1,1,19,9
1.59112013501626e+15,-26,-5,-3,-15,7,7,13,3
1.59112013501727e+15,3,4,6,-10,8,8,10,-5
1.59112013501727e+15,4,-18,-2,-29,-39,-39,-17,13
1.59112013503051e+15,-13,-8,-2,1,-6,-6,-48,-16
1.59112013503051e+15,9,23,7,25,35,35,40,28
1.59112013503738e+15,-12,-23,-3,-26,-41,-41,-42,-16
1.59112013503738e+15,18,15,15,31,19,19,-28,0
1.59112013505436e+15,-8,4,-16,-12,-7,-7,70,12
1.59112013505436e+15,-66,-12,1,-2,-2,-2,-8,-12
1.59112013505964e+15,22,-10,-5,-17,-17,-17,-36,8
1.59112013505964e+15,32,7,-1,-3,15,15,9,-21
1.59112013507643e+15,-56,-22,-13,3,-29,-29,-17,-28
1.59112013507643e+15,28,2,7,1,-5,-5,-18,-7
1.59112013508252e+15,-4,31,13,34,33,33,56,39
1.59112013508252e+15,-46,-30,-24,-10,-18,-18,-77,-27
1.59112013509063e+15,-42,-23,10,8,-34,-34,-21,-45
1.59112013509063e+15,7,1,-35,-68,26,26,47,21
1.59112013509755e+15,-1,-19,-2,-4,-24,-24,-70,-33
1.59112013509755e+15,-2,16,7,30,19,19,30,-1
1.59112013512033e+15,0,-8,-6,-11,-3,-3,-40,11
1.59112013512033e+15,24,14,33,5,13,13,16,13
1.59112013514521e+15,-5,-6,-23,-17,-12,-12,8,2
1.59112013514521e+15,-55,4,0,12,11,11,25,-7
1.59112013514622e+15,40,14,-1,13,0,0,32,16
1.59112013514622e+15,55,12,8,21,-3,-3,-13,4
1.591120135152e+15,10,7,2,-14,12,12,35,16
1.591120135152e+15,16,-15,-10,-28,-33,-33,-15,-5
1.59112013515301e+15,-26,12,7,-9,29,29,66,6
1.59112013515301e+15,-5,18,0,15,34,34,34,7
1.59112013516511e+15,15,-32,-17,-4,-69,-69,-104,-11
1.59112013516511e+15,14,5,1,-15,11,11,32,1
1.59112013518787e+15,-52,-6,5,19,5,5,-15,-19
1.59112013518787e+15,9,3,-2,2,11,11,-2,-13
1.59112013519717e+15,-8,25,10,-6,48,48,95,25
1.59112013519717e+15,9,-20,6,10,-41,-41,-82,-27
1.59112013519818e+15,64,16,-2,-16,16,16,1,34
1.59112013519818e+15,-53,-2,4,20,4,4,5,-16
1.59112013519958e+15,-12,-16,-9,14,-44,-44,-28,-25
1.59112013519958e+15,-4,10,12,33,11,11,-1,-4
1.59112013521053e+15,16,-4,-11,-7,-14,-14,-17,2
1.59112013521053e+15,-5,6,6,13,12,12,20,4
1.59112013521723e+15,11,-10,-22,-50,4,4,-5,1
1.59112013521723e+15,-4,-10,-10,-36,-2,-2,-1,-1
1.59112013523335e+15,41,7,12,36,-15,-15,-48,1
1.59112013523335e+15,41,13,-4,-23,17,17,35,27
1.59112013523435e+15,-49,1,5,17,-1,-1,39,-5
1.59112013523435e+15,10,2,-5,-10,21,21,4,-7
1.59112013525684e+15,-25,-3,14,-11,5,5,-16,-12
1.59112013525684e+15,33,12,-3,39,-1,-1,-15,15
1.59112013526248e+15,-22,-9,-8,-24,25,25,-11,-10
1.59112013526248e+15,-23,-15,-6,-11,-46,-46,-12,8
1.59112013526985e+15,35,17,1,12,31,31,27,-5
1.59112013526985e+15,-14,2,21,18,-13,-13,-6,-6
1.59112013527813e+15,35,26,3,28,17,17,43,31
1.59112013527813e+15,-38,-30,-21,-15,-35,-35,-62,-15
1.59112013529286e+15,25,12,3,-24,33,33,38,19
1.59112013529286e+15,-39,-30,-22,-53,-37,-37,-29,-12
1.59112013529485e+15,-14,4,11,50,11,11,-26,-34
1.59112013529485e+15,-7,4,12,5,-13,-13,24,21
1.59112013531576e+15,44,9,-10,5,2,2,12,-2
1.59112013531576e+15,1,-4,-7,-24,15,15,8,3
1.59112013532324e+15,-33,-8,3,10,-8,-8,-14,-21
1.59112013532324e+15,43,11,-3,-25,16,16,11,21
1.59112013533755e+15,-22,-9,-1,-8,-17,-17,-18,-10
1.59112013533755e+15,-31,-19,1,34,-10,-10,-97,-41
1.59112013534577e+15,-3,3,5,-21,-13,-13,58,8
1.59112013534577e+15,8,14,-12,22,7,7,35,12
1.59112013536095e+15,56,29,23,6,25,25,51,34
1.59112013536095e+15,-35,-40,-15,-19,-38,-38,-109,-43
1.59112013536211e+15,8,-3,-4,-1,5,5,-15,-2
1.59112013536211e+15,35,9,-3,-9,3,3,38,16
1.59112013540001e+15,-27,-11,-8,-34,16,16,-13,3
1.59112013540001e+15,-1,-2,13,20,-36,-36,-1,-2
1.59112013540064e+15,46,40,3,29,56,56,42,57
1.59112013540064e+15,-67,-30,-28,9,-47,-47,-8,-61
1.59112013540238e+15,-23,-14,-7,-22,4,4,-31,-17
1.59112013540238e+15,-47,-12,10,24,-14,-14,-38,-29
1.5911201354055e+15,44,12,-5,-26,2,2,49,36
1.5911201354055e+15,-15,-10,1,-23,-18,-18,-5,3
1.59112013541223e+15,4,2,-8,23,5,5,-9,-6
1.59112013541223e+15,25,14,5,2,9,9,34,8
1.59112013542059e+15,19,-0,-2,0,-13,-13,-21,19
1.59112013542059e+15,-60,-11,-12,-38,19,19,30,-4
1.59112013544287e+15,29,1,11,0,9,9,-36,-7
1.59112013544287e+15,4,15,4,10,14,14,39,1
1.59112013544482e+15,-41,-11,-2,32,-13,-13,-23,-22
1.59112013544482e+15,27,4,6,12,2,2,-22,-8
1.59112013544929e+15,-42,-5,-11,0,-5,-5,23,1
1.59112013544929e+15,46,1,-15,-35,13,13,-11,19
1.59112013545846e+15,-88,-15,-1,-6,5,5,7,-19
1.59112013545846e+15,-8,7,14,0,14,14,17,-3
1.59112013548096e+15,-3,-14,-17,-7,-38,-38,-1,-8
1.59112013548096e+15,7,-3,-1,2,-6,-6,-21,15
1.59112013548196e+15,15,-24,-6,-30,-50,-50,-63,-18
1.59112013548196e+15,22,25,1,-3,70,70,38,22
1.59112013549628e+15,4,7,18,16,-11,-11,2,-4
1.59112013549628e+15,11,9,-1,-4,-7,-7,47,22
1.59112013549728e+15,17,11,10,15,35,35,-16,-10
1.59112013549728e+15,8,2,-5,9,-5,-5,-7,2
1.5911201355096e+15,8,-3,-6,8,-7,-7,-31,1
1.5911201355096e+15,2,6,2,-5,-2,-2,53,-5
1.59112013552419e+15,-6,-15,-4,-5,-45,-45,-24,8
1.59112013552419e+15,7,12,14,9,35,35,8,3
1.59112013554027e+15,-2,-3,-24,-11,-32,-32,43,11
1.59112013554027e+15,33,7,-2,-11,23,23,-25,11
1.59112013554793e+15,-24,-37,-7,-16,-44,-44,-86,-60
1.59112013554793e+15,-63,-17,-7,4,-53,-53,3,12
1.59112013555597e+15,-23,9,9,1,43,43,28,-7
1.59112013555597e+15,11,1,-2,-3,-8,-8,8,10
1.59112013556359e+15,-27,-7,-13,-7,9,9,-12,-8
1.59112013556359e+15,11,3,7,2,17,17,-11,-1
1.5911201355791e+15,-1,19,4,18,16,16,34,14
1.5911201355791e+15,-13,-5,-3,22,-32,-32,10,-7
1.59112013558502e+15,-17,-20,-7,-32,-10,-10,-48,-8
1.59112013558502e+15,19,-5,-5,-3,-9,-9,-28,-19
1.59112013559423e+15,34,26,12,21,62,62,16,7
1.59112013559423e+15,-3,-10,-16,-15,-29,-29,10,11
1.59112013559524e+15,8,-5,2,-31,8,8,25,-31
1.59112013559524e+15,-29,10,6,-19,30,30,6,25
1.59112013561656e+15,37,1,-7,32,-37,-37,3,-4
1.59112013561656e+15,5,-9,-4,10,-16,-16,-40,-10
1.59112013562249e+15,-49,6,4,1,29,29,51,-9
1.59112013562249e+15,108,34,17,10,3,3,52,39
1.59112013562929e+15,-73,-49,-10,-29,-42,-42,-118,-50
1.59112013562929e+15,-63,4,-10,-7,27,27,57,19
1.59112013565508e+15,28,4,0,25,-19,-19,-31,7
1.59112013565508e+15,33,35,26,37,54,54,51,25
1.59112013565508e+15,29,-26,-25,-47,-72,-72,-32,-2
1.59112013565508e+15,-22,-20,5,-27,3,3,-36,-44
1.59112013565708e+15,30,9,-4,-1,8,8,4,15
1.59112013565708e+15,-5,4,16,12,-26,-26,4,13
1.59112013567661e+15,7,-0,-13,2,4,4,4,-14
1.59112013567661e+15,-8,9,8,29,3,3,4,4
1.59112013567761e+15,29,8,-6,-10,21,21,0,18
1.59112013567761e+15,5,-33,-4,-17,-44,-44,-75,-58
1.59112013569912e+15,-12,6,17,18,13,13,-35,7
1.59112013569912e+15,46,25,-3,8,12,12,66,28
1.59112013570012e+15,-82,-18,-9,-16,-17,-17,51,-28
1.59112013570012e+15,16,4,-3,17,-13,-13,-11,12
1.59112013572089e+15,40,23,10,-5,53,53,33,17
1.59112013572089e+15,-51,-27,-33,-54,-22,-22,18,-11
1.59112013572189e+15,108,14,24,6,-6,-6,-44,9
1.59112013572189e+15,-70,15,0,36,37,37,54,11
1.59112013573537e+15,-6,-12,19,15,-47,-47,-22,-15
1.59112013573537e+15,50,21,5,17,26,26,-14,33
1.59112013574282e+15,-10,5,-19,10,13,13,15,12
1.59112013574282e+15,-17,-15,-15,-35,-17,-17,7,-23
1.5911201357585e+15,9,19,20,13,13,13,24,33
1.5911201357585e+15,-36,-12,-1,10,-1,-1,-20,-37
1.59112013575945e+15,2,6,14,3,-11,-11,13,6
1.59112013575945e+15,18,8,-17,5,22,22,2,1
1.59112013577415e+15,-31,-18,-15,-15,-2,-2,-30,-22
1.59112013577415e+15,-25,-19,-6,-47,-27,-27,7,5
1.59112013577914e+15,-8,-8,-7,2,-13,-13,-11,-4
1.59112013577914e+15,11,8,10,0,16,16,-4,2
1.59112013579624e+15,14,6,1,2,-14,-14,31,19
1.59112013579624e+15,5,1,-9,-2,1,1,-3,2
1.59112013580392e+15,64,12,9,21,-6,-6,-24,7
1.59112013580392e+15,-79,-29,-23,-35,0,0,6,-30
1.59112013581865e+15,-31,4,10,-13,31,31,7,-9
1.59112013581865e+15,-6,-10,2,20,-43,-43,-22,-24
1.59112013581941e+15,-47,3,4,34,4,4,22,-15
1.59112013581941e+15,63,20,8,17,8,8,6,34
1.59112013584067e+15,-23,-26,-39,-44,-22,-22,-14,-13
1.59112013584067e+15,25,6,20,0,23,23,-27,-10
1.59112013584241e+15,-9,-5,-16,-28,6,6,10,0
1.59112013584241e+15,14,-2,8,14,-14,-14,-19,-10
1.59112013586362e+15,17,14,14,20,9,9,-20,28
1.59112013586362e+15,-17,-4,3,-24,10,10,27,-21
1.59112013587195e+15,-18,8,7,22,10,10,16,5
1.59112013587195e+15,-3,-12,-6,5,-19,-19,-45,-16
1.59112013587927e+15,49,17,3,17,5,5,16,29
1.59112013587927e+15,-21,-11,-9,-11,10,10,-20,-23
1.59112013589391e+15,4,-9,0,-32,-15,-15,-17,9
1.59112013589391e+15,-50,-10,-14,-15,16,16,3,-20
1.59112013589475e+15,19,-3,2,-11,-22,-22,13,-17
1.59112013589475e+15,-5,10,12,15,5,5,-7,37
1.59112013590747e+15,62,64,23,70,81,81,78,59
1.59112013590747e+15,-31,-70,-51,-88,-113,-113,-77,-60
1.59112013591598e+15,-19,-17,2,-4,-16,-16,-39,-22
1.59112013591598e+15,18,14,5,28,9,9,21,6
1.5911201359222e+15,-30,-6,5,-4,-2,-2,-1,-7
1.5911201359222e+15,33,33,14,26,46,46,55,31
1.59112013593931e+15,-2,-16,-16,-18,-28,-28,-28,-4
1.59112013593931e+15,23,3,6,-13,15,15,-28,4
1.59112013594031e+15,-8,-7,-2,-13,-7,-7,-8,-14
1.59112013594031e+15,-3,8,4,26,8,8,11,-7
1.59112013595305e+15,32,9,14,0,14,14,6,7
1.59112013595305e+15,23,-2,-20,-19,-29,-29,18,15
1.59112013595921e+15,-39,-11,-9,6,1,1,-20,-9
1.59112013595921e+15,-2,-7,1,9,-21,-21,-34,-14
1.59112013597638e+15,3,10,11,8,21,21,17,-1
1.59112013597638e+15,6,11,-2,-1,26,26,26,-6
1.59112013597738e+15,-13,-5,-17,-40,-1,-1,62,-6
1.59112013597738e+15,35,6,17,27,-22,-22,-38,21
1.59112013599813e+15,-16,11,26,70,10,10,0,-30
1.59112013599813e+15,8,-17,-40,-56,-25,-25,-8,21
1.59112013600007e+15,-21,-2,-6,-19,15,15,26,-17
1.59112013600007e+15,28,21,-2,5,29,29,48,14
1.59112013601312e+15,-36,-27,-12,-18,-35,-35,-67,-9
1.59112013601312e+15,14,27,15,39,32,32,68,5
1.59112013602808e+15,-18,-41,-22,-24,-63,-63,-103,-15
1.59112013602808e+15,29,6,6,-23,18,18,7,-6
1.59112013603592e+15,6,3,-18,13,-12,-12,11,26
1.59112013603592e+15,-35,-20,4,-7,-19,-19,-56,-30
1.59112013603792e+15,28,1,0,-2,5,5,-6,3
1.59112013603792e+15,-19,-0,7,-7,3,3,24,-1
1.59112013606601e+15,9,21,-12,4,26,26,55,12
1.59112013606601e+15,4,18,17,60,12,12,8,4
1.59112013608902e+15,30,-14,-15,-21,-29,-29,-52,3
1.59112013608902e+15,-37,-10,-2,-12,7,7,-14,-4
1.59112013609003e+15,-3,-1,-4,-11,1,1,9,-6
1.59112013609003e+15,-3,1,3,2,14,14,12,-16
1.59112013611274e+15,41,14,28,17,2,2,-5,15
1.59112013611274e+15,26,13,-10,-1,10,10,49,4
1.59112013611375e+15,-66,-20,-21,-42,-10,-10,6,2
1.59112013611375e+15,-5,-17,2,-26,-15,-15,-30,-23
1.59112013611928e+15,-4,8,7,-5,-2,-2,31,19
1.59112013611928e+15,1,-10,-6,5,-18,-18,-42,-5
1.59112013611928e+15,38,17,10,28,13,13,9,-3
1.59112013611928e+15,-4,8,8,6,-4,-4,33,22
1.59112013612128e+15,-4,-17,-4,-37,-11,-11,-28,-23
1.59112013612128e+15,2,3,7,20,-4,-4,1,2
1.59112013613294e+15,14,11,-4,-10,21,21,15,25
1.59112013613294e+15,-66,-46,-11,-30,-51,-51,-66,-49
1.59112013613985e+15,6,8,5,27,0,0,-11,-8
1.59112013613985e+15,-16,1,9,8,7,7,-10,-6
1.59112013615674e+15,-18,4,1,8,24,24,1,11
1.59112013615674e+15,45,37,3,0,34,34,117,47
1.59112013615775e+15,-88,-48,-29,-46,-56,-56,-22,-48
1.59112013615775e+15,28,11,11,21,3,3,-2,-3
1.59112013617934e+15,-6,-13,-11,-13,-33,-33,-1,-14
1.59112013617934e+15,-3,-4,7,14,4,4,-51,-5
1.59112013618035e+15,34,25,12,4,38,38,62,12
1.59112013618035e+15,-29,-2,-3,-6,4,4,-1,20
1.59112013619238e+15,6,4,0,17,3,3,7,-21
1.59112013619238e+15,28,15,4,15,6,6,-5,30
1.5911201362074e+15,-35,-11,-12,-9,-10,-10,35,-19
1.5911201362074e+15,-33,-29,-8,-29,-25,-25,-48,-28
1.591120136223e+15,0,5,10,-2,6,6,10,8
1.591120136223e+15,26,11,4,8,23,23,-5,-1
1.59112013623121e+15,12,21,8,25,15,15,31,37
1.59112013623121e+15,15,-22,-17,-34,-37,-37,-58,-13
1.59112013623781e+15,-29,-10,-7,-17,0,0,23,-19
1.59112013623781e+15,36,7,4,9,2,2,-35,11
1.5911201362398e+15,-7,6,3,9,13,13,24,-3
1.5911201362398e+15,10,10,1,-7,17,17,45,10
1.59112013626127e+15,0,4,-5,13,8,8,-4,-3
1.59112013626127e+15,-2,-5,0,-7,-6,-6,-27,-8
1.59112013626326e+15,-6,-12,-2,-4,-10,-10,-47,-13
1.59112013626326e+15,-8,7,4,23,-1,-1,13,10
1.59112013627579e+15,-19,-16,-3,-22,-4,-4,-26,-32
1.59112013627579e+15,0,-6,-4,-4,-14,-14,-7,-5
1.59112013628982e+15,5,-5,1,6,0,0,-42,-17
1.59112013628982e+15,-5,4,0,6,-1,-1,21,5
1.59112013629896e+15,17,8,-1,-20,-5,-5,49,31
1.59112013629896e+15,-34,4,-9,4,10,10,49,-2
1.5911201363e+15,17,-23,-12,-13,-33,-33,-80,-23
1.5911201363e+15,4,13,3,12,14,14,28,8
1.59112013631249e+15,6,-3,2,1,-2,-2,-27,-5
1.59112013631249e+15,-22,-10,5,6,-18,-18,-22,-19
1.59112013632062e+15,20,32,15,13,47,47,76,18
1.59112013632062e+15,21,-1,-10,-1,-15,-15,0,3
1.59112013633628e+15,14,-18,-2,-19,-41,-41,-55,13
1.59112013633628e+15,-34,-14,-18,-28,10,10,-20,-8
1.59112013633762e+15,-13,-7,-6,-6,-22,-22,11,-5
1.59112013633762e+15,-24,-6,3,0,6,6,-27,-14
1.59112013635816e+15,36,10,10,18,-3,-3,-7,2
1.59112013635816e+15,-40,-7,-6,-6,18,18,7,-12
1.5911201363601e+15,19,9,5,-5,-7,-7,18,23
