TimeStamp,emg1,emg2,emg3,emg4,emg5,emg6,emg7,emg8
1.59111994799778e+15,-3,-0,-1,-1,0,0,0,0
1.59111994799778e+15,-1,-1,0,0,-1,-1,-2,-1
1.59111994800476e+15,-1,-0,-1,-1,1,1,-1,0
1.59111994800476e+15,0,-0,-1,0,-2,-2,0,0
1.59111994800476e+15,-1,-1,-3,0,-2,-2,-3,-2
1.59111994800476e+15,-3,-3,-2,-2,-1,-1,-1,-3
1.59111994800576e+15,-1,-0,0,-2,-1,-1,-1,0
1.59111994800576e+15,-2,-1,-2,-3,0,0,0,-2
1.59111994801673e+15,-1,-1,-2,0,-1,-1,-2,-2
1.59111994801673e+15,-1,-1,3,1,-1,-1,-3,-1
1.59111994802468e+15,-2,-1,-3,0,-3,-3,-3,-2
1.59111994802468e+15,-1,-0,1,3,0,0,-1,0
1.59111994803167e+15,1,1,2,0,-1,-1,1,-2
1.59111994803167e+15,-1,1,0,0,0,0,0,-1
1.59111994804679e+15,0,-0,2,-1,1,1,0,0
1.59111994804679e+15,-2,-3,-10,-6,-3,-3,-1,-2
1.59111994805474e+15,-2,1,10,2,0,0,0,0
1.59111994805474e+15,0,-0,-1,-3,1,1,-1,-1
1.59111994807167e+15,-1,-3,-17,-5,1,1,-1,-3
1.59111994807167e+15,-2,1,20,2,-2,-2,-3,-3
1.59111994807773e+15,0,-1,-2,1,-2,-2,0,-1
1.59111994807773e+15,1,2,15,0,-2,-2,2,-1
1.59111994809177e+15,1,-3,-22,1,-1,-1,-2,0
1.59111994809177e+15,1,-2,-12,-7,0,0,-1,0
1.59111994813201e+15,-2,1,-3,2,0,0,0,1
1.59111994813201e+15,-1,-1,-2,-5,-1,-1,-2,-2
1.59111994813302e+15,-2,-1,-4,0,-1,-1,-1,1
1.59111994813302e+15,-1,2,3,8,0,0,-1,-1
1.59111994813402e+15,1,-3,-16,-8,0,0,-1,0
1.59111994813402e+15,0,-2,-16,2,0,0,-2,1
1.59111994813706e+15,0,4,28,2,-2,-2,0,-3
1.59111994813706e+15,0,6,28,10,1,1,-1,-2
1.59111994814501e+15,-3,-4,-22,-5,1,1,1,-1
1.59111994814501e+15,-2,-4,-22,-8,0,0,0,0
1.59111994815164e+15,-3,-3,-9,-9,-1,-1,-2,-2
1.59111994815164e+15,-1,3,16,3,-2,-2,0,-1
1.59111994816001e+15,-7,-11,-47,-17,-4,-4,-4,-1
1.59111994816001e+15,-1,3,25,5,-2,-2,-2,-3
1.59111994817454e+15,1,1,11,4,-1,-1,-2,-4
1.59111994817454e+15,-1,2,20,-1,-3,-3,-3,-3
1.59111994818326e+15,3,2,7,4,0,0,-1,0
1.59111994818326e+15,-1,1,-3,0,1,1,3,0
1.59111994819703e+15,-1,5,20,7,1,1,1,0
1.59111994819703e+15,0,-7,-32,-13,-1,-1,-4,-2
1.59111994820586e+15,0,3,15,7,0,0,1,-2
1.59111994820586e+15,1,-4,-27,-4,-2,-2,-3,-1
1.59111994822039e+15,-2,6,42,4,-3,-3,-1,0
1.59111994822039e+15,0,4,13,7,0,0,1,3
1.59111994822239e+15,-9,-18,-73,-22,-5,-5,-4,-5
1.59111994822239e+15,-1,6,42,4,-2,-2,-1,-1
1.59111994824315e+15,4,-0,-12,-1,0,0,0,2
1.59111994824315e+15,-8,-10,-32,-20,-4,-4,-3,-4
1.59111994824444e+15,3,16,83,15,0,0,-1,1
1.59111994824444e+15,-5,-12,-56,-11,-4,-4,-3,-3
1.59111994825653e+15,0,-2,-13,-9,1,1,-1,-2
1.59111994825653e+15,3,6,22,5,0,0,0,6
1.59111994826501e+15,-1,1,11,2,-1,-1,-3,-3
1.59111994826501e+15,-4,-2,-4,5,-1,-1,-2,-5
1.59111994828158e+15,0,5,25,-1,-1,-1,2,3
1.59111994828158e+15,0,-2,-17,-1,0,0,1,-1
1.59111994828258e+15,-3,-6,-16,-8,-5,-5,-2,-4
1.59111994828258e+15,2,-7,-41,-12,3,3,-1,0
1.59111994830328e+15,-3,4,39,6,-1,-1,-3,-5
1.59111994830328e+15,-3,-1,-4,-5,1,1,2,-2
1.59111994830433e+15,4,11,42,10,3,3,0,3
1.59111994830433e+15,-1,-2,-25,-4,0,0,0,1
1.59111994831678e+15,-7,-6,-27,-3,-4,-4,-2,-6
1.59111994831678e+15,5,-2,-26,-2,-2,-2,1,9
1.59111994832511e+15,2,3,8,6,0,0,0,-3
1.59111994832511e+15,9,5,22,2,0,0,1,4
1.59111994834064e+15,-3,-7,-37,-11,2,2,-1,-1
1.59111994834064e+15,1,12,71,17,-2,-2,-2,-3
1.59111994834186e+15,-6,-3,-14,-8,0,0,0,0
1.59111994834186e+15,0,7,44,6,-3,-3,0,-3
1.59111994836349e+15,-3,-5,-24,-4,1,1,-2,-3
1.59111994836349e+15,-6,-10,-46,-5,-5,-5,-1,-8
1.59111994836449e+15,7,-0,-22,2,4,4,2,0
1.59111994836449e+15,-3,10,66,3,2,2,2,0
1.5911199483933e+15,2,-5,-54,6,0,0,2,-1
1.5911199483933e+15,1,7,22,14,2,2,-1,0
1.5911199483943e+15,-6,-7,-23,-6,-5,-5,-5,-4
1.5911199483943e+15,11,9,9,18,6,6,3,5
1.59111994839979e+15,-20,-33,-97,-63,-9,-9,-10,-10
1.59111994839979e+15,6,17,98,20,2,2,-2,-1
1.59111994840751e+15,-26,-20,-36,-22,-15,-15,-10,-16
1.59111994840751e+15,0,9,50,12,-2,-2,-3,0
1.59111994842331e+15,5,3,-13,10,3,3,2,0
1.59111994842331e+15,1,-4,-30,-7,1,1,1,2
1.59111994842431e+15,3,2,6,-8,2,2,0,11
1.59111994842431e+15,-5,-5,-19,-3,-4,-4,-4,-4
1.59111994844534e+15,7,9,42,16,-6,-6,-2,5
1.59111994844534e+15,2,-10,-59,-17,0,0,0,-4
1.59111994844703e+15,4,7,17,20,2,2,0,-2
1.59111994844703e+15,-22,-18,-44,-21,-9,-9,-8,-10
1.59111994846057e+15,0,-0,4,2,0,0,-2,-4
1.59111994846057e+15,3,-0,-1,-6,2,2,1,1
1.59111994846157e+15,-3,-7,-41,-6,-1,-1,1,-3
1.59111994846157e+15,0,2,14,2,-2,-2,1,-1
1.59111994848311e+15,-4,-2,-5,5,-7,-7,-4,-5
1.59111994848311e+15,-2,-3,-25,-4,3,3,5,3
1.59111994848411e+15,5,7,18,2,4,4,3,4
1.59111994848411e+15,-2,1,22,5,-5,-5,-1,-5
1.59111994850584e+15,6,-2,-33,-11,6,6,5,5
1.59111994850584e+15,-8,7,58,14,-4,-4,-6,-4
1.59111994850685e+15,1,11,54,15,0,0,1,-5
1.59111994850685e+15,-9,-17,-79,-21,-5,-5,-4,-4
1.59111994851987e+15,-3,-0,20,-2,-4,-4,-3,-1
1.59111994851987e+15,-6,-7,-26,-11,-2,-2,-3,-5
1.59111994852823e+15,0,-3,-20,-5,-2,-2,0,0
1.59111994852823e+15,7,7,25,8,1,1,-1,0
1.59111994854308e+15,1,2,5,4,-1,-1,1,1
1.59111994854308e+15,-2,-9,-41,-14,-3,-3,-3,0
1.59111994854408e+15,3,5,22,4,1,1,1,-1
1.59111994854408e+15,0,-2,-9,-3,-1,-1,0,-2
1.59111994855679e+15,4,6,19,6,2,2,3,-1
1.59111994855679e+15,-4,-3,-8,-8,-4,-4,1,0
1.59111994856556e+15,2,1,2,-4,0,0,-2,2
1.59111994856556e+15,-1,9,54,9,1,1,-2,-2
1.59111994857892e+15,-7,-4,-11,-1,-2,-2,-4,-5
1.59111994857892e+15,-3,-3,-10,-1,-3,-3,-2,-4
1.59111994858833e+15,-1,1,5,1,0,0,0,0
1.59111994858833e+15,3,3,12,-3,0,0,1,2
1.59111994860294e+15,0,3,11,6,0,0,-1,2
1.59111994860294e+15,-3,-6,-32,-4,-2,-2,-1,-1
1.59111994860396e+15,2,-0,8,-3,-3,-3,-3,-1
1.59111994860396e+15,-4,-3,-8,-1,0,0,-2,-8
1.59111994861667e+15,2,5,20,5,2,2,2,8
1.59111994861667e+15,5,-0,7,-2,-2,-2,-3,-1
1.59111994862563e+15,3,2,3,1,-1,-1,0,0
1.59111994862563e+15,2,-1,-11,-3,-2,-2,-1,0
1.59111994863997e+15,0,1,7,0,0,0,0,-5
1.59111994863997e+15,-2,-1,-6,-3,0,0,-1,-1
1.59111994864662e+15,-1,1,12,4,-1,-1,-3,-1
1.59111994864662e+15,-4,-2,-8,-1,-2,-2,0,2
1.59111994866388e+15,1,3,6,4,1,1,0,2
1.59111994866388e+15,-6,-4,3,-7,-3,-3,-3,-4
1.59111994866489e+15,-4,-3,-9,-2,-2,-2,0,-2
1.59111994866489e+15,-1,2,7,0,1,1,1,3
1.5911199486768e+15,-1,1,6,1,-3,-3,0,-1
1.5911199486768e+15,-3,-1,-1,1,-1,-1,-2,-5
1.59111994869982e+15,-1,-0,-6,0,0,0,1,3
1.59111994869982e+15,2,-1,-10,-2,-1,-1,-1,-1
1.59111994870081e+15,1,2,1,7,-1,-1,0,0
1.59111994870081e+15,0,-9,-45,-14,-2,-2,-3,-2
1.59111994872335e+15,-4,-0,15,-3,-1,-1,-1,-4
1.59111994872335e+15,-1,-2,-7,0,-2,-2,-1,-2
1.59111994872435e+15,0,-2,-2,-4,-2,-2,-5,-5
1.59111994872435e+15,2,3,8,4,1,1,2,2
1.59111994872535e+15,0,-0,-2,1,0,0,-1,0
1.59111994872535e+15,-2,-2,-7,-4,-2,-2,-1,1
1.59111994875227e+15,1,1,8,-2,-1,-1,-1,-1
1.59111994875227e+15,0,1,7,1,0,0,-1,0
1.59111994876973e+15,1,-0,2,0,-1,-1,1,-2
1.59111994876973e+15,-2,-1,-5,-4,0,0,0,0
1.59111994877073e+15,-4,-5,-12,-7,-2,-2,-2,-6
1.59111994877073e+15,-2,2,10,1,-1,-1,1,2
1.59111994877423e+15,-2,-1,2,-2,-2,-2,0,-3
1.59111994877423e+15,-2,-3,-13,-4,0,0,-1,-4
1.59111994878946e+15,-4,-1,-5,-3,0,0,-2,1
1.59111994878946e+15,-1,2,5,2,2,2,0,-2
1.5911199487979e+15,-1,2,14,3,0,0,-1,-1
1.5911199487979e+15,0,1,1,-1,0,0,-3,2
1.59111994880577e+15,-1,-4,-21,-3,1,1,-1,-1
1.59111994880577e+15,-1,-0,4,0,-2,-2,0,-3
1.59111994880678e+15,-3,-1,-1,0,-1,-1,-3,-2
1.59111994880678e+15,-2,-1,-7,-4,0,0,0,1
1.59111994882846e+15,-2,-1,3,-2,-3,-3,-1,0
1.59111994882846e+15,-2,-0,0,1,1,1,-3,0
1.59111994882946e+15,-3,-2,-7,-4,-1,-1,-2,-2
1.59111994882946e+15,1,1,-1,0,-2,-2,0,4
1.59111994884253e+15,0,2,7,2,0,0,1,0
1.59111994884253e+15,-3,-0,-1,-2,-1,-1,0,1
1.59111994884447e+15,1,-0,-1,-3,-1,-1,-1,-2
1.59111994884447e+15,-1,-0,1,-1,2,2,-2,-6
1.59111994886547e+15,1,-0,2,-2,-1,-1,-2,-2
1.59111994886547e+15,-2,-1,5,-1,-4,-4,-3,-1
1.59111994886642e+15,-3,-1,-4,-1,-2,-2,-2,0
1.59111994886642e+15,-2,-1,-5,-1,-2,-2,-3,0
1.59111994888736e+15,-3,-0,4,0,0,0,-2,-1
1.59111994888736e+15,1,1,1,0,0,0,-1,-1
1.59111994888935e+15,0,-0,-4,-1,-1,-1,-2,-1
1.59111994888935e+15,-1,-1,-1,-1,-1,-1,-3,-2
1.59111994890235e+15,0,1,1,1,-1,-1,0,1
1.59111994890235e+15,0,-0,2,-1,0,0,-1,-2
1.59111994890431e+15,-3,-1,-3,0,0,0,-1,-2
1.59111994890431e+15,-1,-1,-1,-1,-1,-1,0,-3
1.59111994892525e+15,-4,-2,-1,-2,-2,-2,-1,-1
1.59111994892525e+15,-1,-1,-4,-1,0,0,-1,-1
1.59111994892725e+15,0,-1,-5,0,-1,-1,-1,-1
1.59111994892725e+15,-1,-0,-1,1,-1,-1,-2,1
1.59111994893954e+15,3,1,0,0,-2,-2,-1,-2
1.59111994893954e+15,-1,-1,-1,-4,-1,-1,-1,-3
1.5911199489473e+15,-1,-0,-1,-3,-1,-1,0,0
1.5911199489473e+15,-1,-1,0,-1,-3,-3,-1,-1
1.59111994896298e+15,0,-1,-2,-1,-1,-1,-3,-1
1.59111994896298e+15,4,1,3,2,-1,-1,0,-1
1.59111994896399e+15,-1,-1,-3,-3,-1,-1,0,1
1.59111994896399e+15,1,-1,-2,-2,1,1,0,-2
1.59111994898572e+15,-2,1,0,0,1,1,0,0
1.59111994898572e+15,-3,-1,-3,0,-1,-1,-1,0
1.59111994898672e+15,-1,-0,0,0,-3,-3,-2,-1
1.59111994898672e+15,-1,-0,-1,-1,0,0,0,-2
1.59111994899902e+15,-2,-0,-1,-2,0,0,-1,2
1.59111994899902e+15,-2,-1,-1,-2,-1,-1,-1,-1
1.59111994900758e+15,-1,-1,-1,-2,0,0,0,-1
1.59111994900758e+15,-4,-2,-1,1,-2,-2,-2,-5
1.59111994902155e+15,-2,-2,-2,-3,-1,-1,-1,-5
1.59111994902155e+15,-2,-2,-3,-1,-3,-3,-1,-5
1.59111994903004e+15,0,-1,-2,-2,-2,-2,-1,1
1.59111994903004e+15,-3,-1,0,-2,-1,-1,0,-1
1.59111994904559e+15,-1,-0,1,-1,0,0,0,2
1.59111994904559e+15,0,-0,1,-1,0,0,-3,1
1.5911199490471e+15,-1,-1,0,0,0,0,-3,-2
1.5911199490471e+15,-3,-1,0,0,-2,-2,-1,-1
1.59111994905911e+15,-3,-1,0,-1,-2,-2,-4,-3
1.59111994905911e+15,0,-0,0,-1,-2,-2,0,-2
1.59111994908377e+15,1,-0,-2,0,-1,-1,-2,0
1.59111994908377e+15,0,-1,-2,-1,-1,-1,-2,-2
1.5911199490847e+15,-3,-1,-2,-1,0,0,-1,-3
1.5911199490847e+15,0,-0,-1,1,0,0,-1,1
1.5911199490867e+15,-2,-0,-2,-1,-2,-2,-1,0
1.5911199490867e+15,-2,-1,-2,-2,-3,-3,-1,-2
1.59111994910476e+15,-2,-1,-3,-2,-2,-2,-2,-4
1.59111994910476e+15,-1,-0,-2,-1,-1,-1,0,1
1.5911199491117e+15,-1,-1,-1,-1,-1,-1,0,-6
1.5911199491117e+15,-1,-1,-1,-3,0,0,-2,4
1.59111994913528e+15,3,1,1,-1,-1,-1,0,-2
1.59111994913528e+15,-2,-1,0,-2,-3,-3,-2,-3
1.59111994913628e+15,0,-2,-1,1,-3,-3,-3,-11
1.59111994913628e+15,0,1,-3,0,0,0,0,6
1.59111994914139e+15,-3,-0,0,0,-2,-2,-1,0
1.59111994914139e+15,-3,-1,-1,-2,1,1,-2,-5
1.59111994915077e+15,-1,1,0,-1,0,0,2,4
1.59111994915077e+15,0,-1,-1,0,-3,-3,-3,-4
1.59111994916491e+15,-2,-2,-2,2,-5,-5,-3,-1
1.59111994916491e+15,-2,-0,-1,1,1,1,0,-2
1.59111994917271e+15,0,-1,-2,-3,0,0,-3,0
1.59111994917271e+15,1,-0,1,-3,0,0,-1,-3
1.59111994918867e+15,-3,-0,0,-3,0,0,0,2
1.59111994918867e+15,-4,-2,-1,-2,-2,-2,-2,-2
1.59111994918964e+15,-2,-0,-1,-3,-1,-1,1,3
1.59111994918964e+15,0,-1,-2,0,0,0,-2,-4
1.59111994921845e+15,0,-1,-1,0,-1,-1,-2,-1
1.59111994921845e+15,-2,-1,-1,0,-1,-1,-3,-1
1.59111994921948e+15,0,-0,0,0,-2,-2,1,-1
1.59111994921948e+15,-1,1,0,1,-1,-1,1,-4
1.59111994922536e+15,0,-1,-2,0,0,0,-2,-2
1.59111994922536e+15,1,-0,-1,-1,-1,-1,-1,0
1.59111994925673e+15,0,-0,-2,-2,0,0,-2,-2
1.59111994925673e+15,0,-1,0,-1,-2,-2,-2,-1
1.59111994925673e+15,0,-0,-1,-1,-1,-1,0,0
1.59111994925673e+15,-1,-0,-2,1,-4,-4,0,1
1.5911199492583e+15,-1,-0,-1,1,-2,-2,-2,-3
1.5911199492583e+15,-1,-0,0,-2,0,0,0,2
1.59111994927831e+15,-1,-0,-2,-2,-1,-1,-1,2
1.59111994927831e+15,-1,-0,-1,-3,-1,-1,0,-1
1.59111994927897e+15,0,-0,1,-2,-1,-1,-1,-1
1.59111994927897e+15,0,-1,-2,-1,-3,-3,-1,-3
1.59111994929298e+15,-2,-0,0,-2,4,4,0,-3
1.59111994929298e+15,-3,-1,-2,-3,-3,-3,0,-2
1.59111994929895e+15,-4,-0,-1,0,2,2,-2,-1
1.59111994929895e+15,-1,-2,-2,-2,-2,-2,-3,-1
1.59111994930772e+15,1,-1,-3,-3,-3,-3,-3,-2
1.59111994930772e+15,0,2,0,1,5,5,0,0
1.59111994930975e+15,1,2,1,4,1,1,0,0
1.59111994930975e+15,-2,-0,-1,3,0,0,0,0
1.59111994933079e+15,-1,-2,-3,-1,-4,-4,-1,-1
1.59111994933079e+15,-3,-3,-1,-5,-1,-1,-4,-3
1.59111994933145e+15,-3,-3,-2,-7,-1,-1,-1,-1
1.59111994933145e+15,-4,-1,-2,1,0,0,0,-5
1.59111994934464e+15,0,1,0,-2,0,0,2,1
1.59111994934464e+15,1,-2,-2,-7,-1,-1,0,-1
1.59111994935277e+15,-1,2,-1,9,-1,-1,0,2
1.59111994935277e+15,0,-0,-2,-2,2,2,2,-1
1.59111994936748e+15,-2,-2,-3,0,-7,-7,-4,-4
1.59111994936748e+15,2,-2,-6,-3,-5,-5,-4,3
1.59111994936952e+15,3,-1,-1,-4,-2,-2,0,3
1.59111994936952e+15,-3,-1,-2,-5,0,0,-1,4
1.5911199493907e+15,-2,-1,-1,-2,-1,-1,1,-7
1.5911199493907e+15,3,-0,0,-1,0,0,-8,1
1.59111994939139e+15,-8,-1,-1,-3,-2,-2,7,-1
1.59111994939139e+15,0,-1,0,-1,-2,-2,-2,-6
1.59111994941335e+15,-1,-0,-1,-1,0,0,0,1
1.59111994941335e+15,-1,-4,0,2,-6,-6,-25,0
1.59111994941465e+15,-1,4,-3,-3,2,2,26,1
1.59111994941465e+15,1,2,2,0,0,0,1,6
1.59111994942842e+15,-5,-2,-3,-1,-1,-1,1,-9
1.59111994942842e+15,-2,1,1,3,0,0,4,1
1.59111994942967e+15,14,-1,-4,-4,-4,-4,-14,6
1.59111994942967e+15,-8,-3,-5,-6,-4,-4,-1,-2
1.59111994945107e+15,1,1,0,1,2,2,-1,2
1.59111994945107e+15,-2,2,1,2,0,0,6,-2
1.59111994945206e+15,-4,-4,-4,-1,-3,-3,-10,-4
1.59111994945206e+15,-1,2,10,2,-2,-2,2,-1
1.59111994946403e+15,0,-0,3,0,-3,-3,-4,0
1.59111994946403e+15,-4,-2,-9,-2,-2,-2,4,-2
1.59111994947301e+15,-3,-2,-3,-2,-1,-1,-3,-3
1.59111994947301e+15,5,-1,-2,-3,-3,-3,-4,-3
1.59111994949538e+15,-3,2,5,1,-1,-1,0,0
1.59111994949538e+15,0,1,5,0,-2,-2,3,-4
1.59111994949642e+15,-4,-1,2,-2,-1,-1,-4,-4
1.59111994949642e+15,-2,-2,-8,-3,-1,-1,-2,-1
1.59111994951131e+15,0,-0,-4,1,-1,-1,-1,2
1.59111994951131e+15,-2,1,2,-1,1,1,2,-1
1.59111994951199e+15,0,-2,-3,-1,-1,-1,-6,-2
1.59111994951199e+15,0,-1,0,-3,-2,-2,-1,-1
1.59111994952455e+15,-2,-1,-3,-2,-1,-1,0,0
1.59111994952455e+15,-1,-0,-1,0,0,0,0,-4
1.59111994953306e+15,-4,-1,1,1,1,1,-2,-1
1.59111994953306e+15,0,-0,-1,0,0,0,-2,-1
1.59111994954852e+15,1,-1,-5,-3,0,0,-2,0
1.59111994954852e+15,-1,-0,-1,-2,1,1,0,-2
1.59111994954953e+15,-3,-2,1,-2,-2,-2,-3,-6
1.59111994954953e+15,-2,-1,-4,0,0,0,0,1
1.59111994957064e+15,2,-0,1,0,1,1,-3,0
1.59111994957064e+15,-1,-0,-1,-2,-1,-1,1,0
1.5911199495724e+15,0,-0,0,0,-1,-1,-1,-1
1.5911199495724e+15,-1,-1,0,-3,0,0,-4,-2
1.59111994958418e+15,-3,-2,-2,0,-4,-4,-1,-2
1.59111994958418e+15,1,-0,-1,-1,0,0,0,-3
1.59111994960636e+15,-6,-0,-5,0,0,0,0,5
1.59111994960636e+15,0,1,1,2,-1,-1,1,-1
1.59111994961567e+15,2,-0,-1,-1,-1,-1,0,1
1.59111994961567e+15,-2,-2,-3,-3,-1,-1,-1,-4
1.59111994961667e+15,0,-1,1,-1,-1,-1,-1,-4
1.59111994961667e+15,-3,-1,0,-3,-1,-1,-2,-3
1.59111994963082e+15,-3,-1,-1,-1,1,1,-1,-4
1.59111994963082e+15,-1,-0,0,-3,-2,-2,0,4
1.59111994963163e+15,1,-1,0,-4,-1,-1,-2,-2
1.59111994963163e+15,-1,-0,-1,-3,-1,-1,-1,0
1.59111994965277e+15,-2,-0,-1,1,0,0,-2,-1
1.59111994965277e+15,-2,-1,-2,0,0,0,-1,-2
1.59111994965477e+15,1,-0,0,-1,0,0,-2,-2
1.59111994965477e+15,0,-1,-2,-2,-1,-1,-2,-1
1.59111994966787e+15,-1,-2,-2,-4,-3,-3,-3,-1
1.59111994966787e+15,0,-0,0,0,-1,-1,1,1
1.59111994966886e+15,-1,-0,-1,-1,0,0,-3,3
1.59111994966886e+15,-1,-0,-2,0,0,0,-1,-2
1.59111994969073e+15,0,-0,-1,-1,0,0,1,-3
1.59111994969073e+15,-2,-1,-3,-2,0,0,0,-2
1.59111994969137e+15,-1,-1,-1,-1,-1,-1,0,-2
1.59111994969137e+15,2,-0,-1,-1,-1,-1,-1,0
1.59111994970439e+15,-5,-0,0,0,0,0,-1,0
1.59111994970439e+15,-2,-0,-2,-1,-1,-1,-2,-1
1.59111994971277e+15,-2,-1,1,-1,-2,-2,-2,-4
1.59111994971277e+15,-8,-4,-5,-6,-2,-2,-3,-2
1.59111994972843e+15,0,-0,0,-1,-2,-2,-1,-1
1.59111994972843e+15,0,-0,-3,-1,1,1,0,-2
1.59111994972944e+15,-2,-1,1,-1,1,1,1,-2
1.59111994972944e+15,-2,1,1,6,-2,-2,1,-1
1.59111994975065e+15,0,1,3,-1,-1,-1,-1,-3
1.59111994975065e+15,0,-0,-4,4,-3,-3,0,-2
1.59111994975165e+15,-1,-1,-4,3,-3,-3,0,-2
1.59111994975165e+15,1,-1,-3,-1,-3,-3,1,1
1.59111994977302e+15,-2,-2,-1,-6,-2,-2,-1,0
1.59111994977302e+15,1,1,2,-1,-1,-1,0,1
1.5911199497741e+15,-4,-2,-4,-4,-2,-2,-1,-1
1.5911199497741e+15,1,-0,0,0,0,0,-4,-1
1.59111994978831e+15,1,1,1,3,-1,-1,0,-1
1.59111994978831e+15,-5,-6,-17,-9,-3,-3,-4,-2
1.59111994978924e+15,1,-1,-1,-1,-2,-2,1,-1
1.59111994978924e+15,-6,-2,-1,-2,-4,-4,-2,-2
1.59111994981054e+15,-2,-0,2,0,-2,-2,-2,-4
1.59111994981054e+15,-1,1,4,2,-1,-1,0,2
1.59111994981228e+15,-1,-1,-3,1,-1,-1,0,-4
1.59111994981228e+15,3,1,-1,-1,-1,-1,0,6
1.59111994982369e+15,-1,-1,-5,-3,-2,-2,1,-2
1.59111994982369e+15,-1,-0,7,2,-1,-1,-1,-6
1.59111994983313e+15,0,1,-3,-3,-2,-2,0,8
1.59111994983313e+15,0,-1,1,-2,-2,-2,-2,-3
1.59111994984846e+15,0,-2,-9,-3,-3,-3,1,1
1.59111994984846e+15,0,-1,0,1,-4,-4,-3,0
1.59111994984947e+15,0,-0,1,0,-2,-2,-2,-4
1.59111994984947e+15,0,-0,1,0,0,0,-2,-2
1.59111994987831e+15,-2,-0,1,-1,-1,-1,0,2
1.59111994987831e+15,-3,-1,-4,-2,0,0,0,-1
1.59111994987912e+15,0,-0,2,-3,-1,-1,-1,0
1.59111994987912e+15,-1,-0,-1,1,-1,-1,2,-4
1.59111994988414e+15,0,-0,1,-1,0,0,0,-1
1.59111994988414e+15,0,1,1,0,-1,-1,1,2
1.59111994989266e+15,-2,-1,0,-2,-2,-2,-1,1
1.59111994989266e+15,3,-1,-4,-3,-3,-3,-2,-4
1.59111994990734e+15,1,-1,-3,-2,-2,-2,-2,-2
1.59111994990734e+15,-1,-1,-1,-3,-3,-3,-1,-2
1.59111994991453e+15,-3,-3,-5,-2,-2,-2,-2,-4
1.59111994991453e+15,-7,-0,2,0,2,2,2,-1
1.59111994993771e+15,0,1,4,2,1,1,0,0
1.59111994993771e+15,-2,-0,4,1,-1,-1,-1,-1
1.59111994993974e+15,-1,-0,-2,0,-1,-1,-2,-2
1.59111994993974e+15,-3,-2,-3,-1,-2,-2,-2,-1
1.59111994994463e+15,-1,-1,-1,-2,-2,-2,-4,1
1.59111994994463e+15,0,-0,5,-1,0,0,-1,-5
1.5911199499528e+15,2,2,1,0,1,1,2,3
1.5911199499528e+15,-1,-1,-6,-4,0,0,-1,1
1.5911199499825e+15,-2,-1,-4,-1,-3,-3,-1,-3
1.5911199499825e+15,0,-1,0,-2,-3,-3,-2,-1
1.5911199499845e+15,-1,-1,2,-1,0,0,-3,-3
1.5911199499845e+15,-1,-1,-1,-2,-2,-2,-1,-1
1.59111994999065e+15,0,1,-1,1,1,1,0,-1
1.59111994999065e+15,-3,-2,-1,-2,-1,-1,-3,-1
1.59111994999151e+15,-1,-0,-4,0,0,0,0,-2
1.59111994999151e+15,-2,-1,-1,-1,-1,-1,0,-2
1.59111995000425e+15,-4,-2,-2,-5,-1,-1,-1,-2
1.59111995000425e+15,0,-0,-4,1,0,0,1,2
1.5911199500125e+15,2,-1,0,-1,-2,-2,0,-3
1.5911199500125e+15,0,-0,1,-1,-2,-2,-2,-1
1.5911199500271e+15,-4,-2,-4,1,-1,-1,-2,-2
1.5911199500271e+15,-2,-0,-2,0,0,0,-2,-3
1.59111995003409e+15,-1,1,-2,-1,0,0,1,4
1.59111995003409e+15,1,-0,2,0,0,0,-3,-1
1.59111995005045e+15,1,-1,0,-3,-1,-1,-3,0
1.59111995005045e+15,-2,-2,-9,-3,0,0,-1,-2
1.59111995005192e+15,-3,1,5,3,-2,-2,-1,-2
1.59111995005192e+15,-8,-2,0,0,-2,-2,-1,-6
1.59111995007336e+15,-1,-2,-12,-4,0,0,0,2
1.59111995007336e+15,-1,-0,0,-1,0,0,0,-1
1.59111995007386e+15,-1,-2,-2,-3,-2,-2,-4,-5
1.59111995007386e+15,-2,-0,1,-1,0,0,0,0
1.59111995008748e+15,-1,-0,3,1,0,0,0,-2
1.59111995008748e+15,-2,-2,-3,-2,-2,-2,-2,0
1.59111995009452e+15,-2,-2,-2,-4,0,0,-2,1
1.59111995009452e+15,4,-0,-1,-1,-1,-1,-3,1
1.59111995011104e+15,-5,-0,3,0,-1,-1,-1,-1
1.59111995011104e+15,0,-0,0,0,-2,-2,2,-1
1.59111995011671e+15,-4,1,4,0,2,2,0,-3
1.59111995011671e+15,2,1,-5,0,-1,-1,-1,5
1.59111995012426e+15,2,2,4,2,0,0,-1,1
1.59111995012426e+15,-4,-1,-3,-1,-1,-1,-1,-2
1.59111995013884e+15,-3,-1,-1,0,-1,-1,-2,-2
1.59111995013884e+15,-3,-1,-5,-1,0,0,-2,-2
1.59111995014781e+15,0,-1,-5,-1,-2,-2,0,-2
1.59111995014781e+15,0,1,2,-2,1,1,-1,1
1.59111995015456e+15,-1,-1,0,-1,-3,-3,-2,-3
1.59111995015456e+15,1,3,5,1,0,0,0,2
1.59111995017829e+15,-1,-1,-1,-3,-2,-2,-1,-2
1.59111995017829e+15,-1,-1,-4,-2,0,0,0,-3
1.59111995017887e+15,1,-0,-3,-1,0,0,1,-1
1.59111995017887e+15,0,-0,-1,-1,-1,-1,1,-1
1.59111995019338e+15,-2,-0,2,0,0,0,-2,-2
1.59111995019338e+15,0,-0,-2,-2,-1,-1,-1,-1
1.59111995019439e+15,-2,-1,-1,-1,-1,-1,-2,1
1.59111995019439e+15,1,-0,-2,0,-2,-2,-1,-3
1.59111995021559e+15,4,1,3,2,-1,-1,1,-2
1.59111995021559e+15,0,-2,-4,-1,-2,-2,0,-6
1.59111995021759e+15,-3,1,-1,-2,-3,-3,2,6
1.59111995021759e+15,-2,-2,-2,-2,-1,-1,-4,-4
1.59111995023662e+15,-8,-3,-8,-6,-2,-2,0,1
1.59111995023662e+15,5,3,0,0,1,1,1,10
1.5911199502456e+15,1,-6,-2,0,-7,-7,-22,-18
1.5911199502456e+15,5,-3,-1,-1,-2,-2,-12,-12
1.59111995025262e+15,-4,3,3,-3,0,0,3,18
1.59111995025262e+15,-11,6,-3,2,12,12,39,0
1.59111995025994e+15,12,-6,-34,-9,-4,-4,-3,-4
1.59111995025994e+15,-9,-0,10,-5,3,3,-4,-2
1.59111995026749e+15,-3,-10,18,6,-12,-12,-40,-41
1.59111995026749e+15,-11,-4,-12,-8,-4,-4,2,8
1.59111995028174e+15,4,2,-19,-2,7,7,14,5
1.59111995028174e+15,29,16,47,15,-3,-3,3,12
1.59111995029005e+15,-12,1,-7,1,-1,-1,0,23
1.59111995029005e+15,-16,-3,7,4,-4,-4,-12,-4
1.591119950292e+15,20,-3,-8,-6,-3,-3,-24,-3
1.591119950292e+15,0,-0,-6,1,-9,-9,0,15
1.59111995031418e+15,10,-0,-4,-3,7,7,-7,-8
1.59111995031418e+15,1,-12,-8,-4,3,3,-47,-34
1.59111995031518e+15,-1,27,2,-4,19,19,103,63
1.59111995031518e+15,0,-5,-12,-3,-10,-10,-22,8
1.59111995033543e+15,4,3,-5,-3,-6,-6,28,3
1.59111995033543e+15,-3,-4,-2,0,-1,-1,-16,-8
1.5911199503372e+15,-4,-4,16,3,-1,-1,-29,-13
1.5911199503372e+15,-11,-2,-1,-4,5,5,0,-1
1.59111995034977e+15,-6,-3,-7,-4,-3,-3,4,-6
1.59111995034977e+15,17,3,4,2,-2,-2,-4,4
1.59111995035177e+15,-16,-3,12,4,-3,-3,-5,-10
1.59111995035177e+15,-1,-3,-15,-4,-1,-1,13,-8
1.59111995037289e+15,0,-2,-3,-1,1,1,-10,-4
1.59111995037289e+15,5,6,6,3,2,2,16,7
1.59111995037463e+15,-10,-3,4,2,-3,-3,-10,-8
1.59111995037463e+15,-13,-8,-23,-10,-1,-1,-1,-11
1.59111995038705e+15,4,1,2,-1,2,2,1,1
1.59111995038705e+15,-1,3,16,2,-3,-3,3,6
1.59111995039575e+15,-11,-8,-6,-9,-8,-8,-8,-11
1.59111995039575e+15,-3,3,11,1,4,4,3,1
1.59111995041076e+15,-1,-0,-20,1,-1,-1,5,7
1.59111995041076e+15,-11,-11,-37,-14,-9,-9,0,-5
1.59111995041143e+15,-3,-3,13,-6,-3,-3,-14,-8
1.59111995041143e+15,-12,-5,-9,-10,1,1,4,-8
1.59111995043291e+15,-4,-4,-24,-13,5,5,1,-3
1.59111995043291e+15,5,7,16,14,-3,-3,-1,3
1.59111995044012e+15,-4,-0,-4,15,0,0,-6,-6
1.59111995044012e+15,-1,1,10,-4,-1,-1,2,0
1.5911199504464e+15,2,3,3,12,-2,-2,1,1
1.5911199504464e+15,5,-3,-3,-8,-2,-2,-3,-3
1.59111995045524e+15,-1,-4,-9,-4,-5,-5,-1,-1
1.59111995045524e+15,5,5,12,4,2,2,5,2
1.59111995047075e+15,-6,-3,14,-6,-3,-3,-6,-18
1.59111995047075e+15,3,7,5,2,2,2,7,23
1.59111995047139e+15,5,3,5,0,-3,-3,1,1
1.59111995047139e+15,0,1,-11,2,2,2,3,2
1.59111995049315e+15,5,-0,1,-3,0,0,1,0
1.59111995049315e+15,1,-2,-6,-5,0,0,-2,2
1.59111995049402e+15,1,1,6,2,-1,-1,-1,-4
1.59111995049402e+15,-4,-3,-5,-2,-4,-4,-4,-3
1.59111995050708e+15,1,1,2,-3,-1,-1,4,5
1.59111995050708e+15,-5,1,2,4,-1,-1,2,-4
1.59111995051528e+15,-4,-3,-5,-4,-3,-3,-5,-3
1.59111995051528e+15,-2,2,16,8,0,0,0,-6
1.59111995053075e+15,-3,-5,-23,-8,1,1,-2,1
1.59111995053075e+15,0,1,8,-7,3,3,-1,-3
1.59111995053143e+15,-3,4,14,16,0,0,-6,-3
1.59111995053143e+15,-6,-10,-37,-8,0,0,-9,-8
1.59111995056049e+15,-1,4,6,2,1,1,12,3
1.59111995056049e+15,-2,-4,-9,-4,-4,-4,-4,-6
1.59111995056237e+15,2,-1,5,-8,-2,-2,1,-2
1.59111995056237e+15,4,6,23,6,-1,-1,-4,4
1.59111995056645e+15,-6,-1,18,-15,1,1,-6,1
1.59111995056645e+15,3,-10,-20,-31,-3,-3,-2,-5
1.59111995059143e+15,-7,4,-14,41,2,2,-5,-4
1.59111995059143e+15,0,-2,-21,-1,1,1,2,0
1.59111995060587e+15,3,5,23,8,-1,-1,-6,-1
1.59111995060587e+15,14,13,51,14,0,0,5,4
1.59111995060635e+15,-15,-12,-12,-28,-7,-7,-6,-8
1.59111995060635e+15,7,-2,-1,-19,-2,-2,2,0
1.59111995061335e+15,1,-2,15,-14,-6,-6,0,1
1.59111995061335e+15,15,11,16,30,2,2,-1,4
1.59111995061464e+15,-18,-7,-45,26,-5,-5,-4,-4
1.59111995061464e+15,-2,-0,-8,-4,1,1,3,-1
1.59111995063556e+15,-2,4,13,25,-2,-2,-4,-2
1.59111995063556e+15,-9,-24,-41,-101,-4,-4,-1,-3
1.59111995063657e+15,25,13,45,40,-3,-3,-3,3
1.59111995063657e+15,-13,-7,-58,-10,7,7,2,-4
1.59111995064977e+15,-25,1,8,31,-2,-2,-4,-6
1.59111995064977e+15,1,4,40,0,-6,-6,-4,-3
1.59111995065177e+15,-13,3,10,-6,4,4,3,-3
1.59111995065177e+15,1,-14,-46,-19,-7,-7,-4,2
1.59111995068074e+15,9,9,48,4,-1,-1,0,-4
1.59111995068074e+15,-22,-8,-30,-12,2,2,0,-1
1.59111995068153e+15,-4,-14,-39,-36,-5,-5,-5,-4
1.59111995068153e+15,7,13,38,37,-1,-1,0,2
1.59111995068627e+15,30,12,9,-11,13,13,11,15
1.59111995068627e+15,-8,-5,-33,10,-4,-4,-3,-7
1.59111995069495e+15,-3,-13,-68,-23,0,0,0,2
1.59111995069495e+15,10,-3,-13,-1,-5,-5,-3,1
1.59111995071077e+15,3,-2,-10,4,-4,-4,-6,-6
1.59111995071077e+15,-25,5,39,18,-2,-2,-3,-1
1.59111995071144e+15,2,7,4,46,1,1,1,1
1.59111995071144e+15,9,-4,-22,-46,5,5,6,4
1.59111995073298e+15,-18,-15,-30,-25,-5,-5,-8,-10
1.59111995073298e+15,-6,1,-12,17,3,3,-1,-2
1.59111995073393e+15,-3,-0,22,-2,-6,-6,-5,-3
1.59111995073393e+15,-5,-1,10,-2,-1,-1,-2,-2
1.59111995075594e+15,0,-11,-62,-15,1,1,0,-2
1.59111995075594e+15,17,8,-4,13,6,6,3,8
1.59111995075695e+15,10,7,42,-20,1,1,9,6
1.59111995075695e+15,-11,-2,18,9,-7,-7,-9,-8
1.59111995077082e+15,3,-3,-12,-3,-3,-3,-13,7
1.59111995077082e+15,-15,-1,5,17,-1,-1,6,-20
1.59111995077139e+15,18,5,1,-14,9,9,10,9
1.59111995077139e+15,-4,4,10,11,-5,-5,7,12
1.59111995079341e+15,-10,-4,1,3,0,0,-7,-22
1.59111995079341e+15,11,-2,-4,0,-6,-6,-9,-7
1.59111995079888e+15,-12,-15,-11,-16,-2,-2,-73,6
1.59111995079888e+15,-1,7,0,-2,-26,-26,102,-25
1.5911199508063e+15,3,-0,3,-5,4,4,-43,36
1.5911199508063e+15,-24,1,-14,-2,39,39,73,-58
1.59111995081535e+15,13,2,6,-6,-10,-10,-21,32
1.59111995081535e+15,8,3,30,17,-30,-30,-54,40
1.59111995083082e+15,-21,-15,-22,-5,2,2,-78,22
1.59111995083082e+15,2,7,-2,5,31,31,72,-65
1.59111995083139e+15,-15,-5,-5,-11,3,3,31,-24
1.59111995083139e+15,17,9,12,6,32,32,-36,16
1.5911199508594e+15,-21,-20,4,-1,-60,-60,-46,-6
1.5911199508594e+15,17,10,-5,1,5,5,-37,87
1.59111995088335e+15,-5,5,9,-6,33,33,52,-48
1.59111995088335e+15,4,-9,3,4,-5,-5,-34,-43
1.59111995088435e+15,4,13,0,3,4,4,57,14
1.59111995088435e+15,-11,-5,1,1,-16,-16,-25,17
1.59111995088534e+15,6,2,1,-4,-25,-25,-1,23
1.59111995088534e+15,-8,-5,-4,-2,4,4,-15,-7
1.59111995088987e+15,1,-1,5,5,11,11,-5,-32
1.59111995088987e+15,3,-2,4,0,-27,-27,-7,11
1.59111995089603e+15,8,5,6,1,6,6,5,6
1.59111995089603e+15,-13,-8,2,-1,-5,-5,-24,-20
1.59111995091351e+15,7,9,-6,-1,12,12,46,3
1.59111995091351e+15,3,-0,-2,3,-15,-15,-22,29
1.59111995091458e+15,-2,-7,-1,-5,-15,-15,-12,-16
1.59111995091458e+15,-10,-0,6,2,13,13,1,-11
1.59111995094254e+15,17,9,6,-3,-5,-5,28,17
1.59111995094254e+15,9,-1,-3,-2,-6,-6,-4,3
1.59111995094397e+15,-10,-7,6,2,-27,-27,-24,-4
1.59111995094397e+15,-12,3,0,0,21,21,22,-10
1.59111995094959e+15,12,-3,-3,0,7,7,-27,-12
1.59111995094959e+15,4,-9,-3,0,-40,-40,-34,14
1.59111995095675e+15,-5,-0,0,1,31,31,-3,-32
1.59111995095675e+15,13,25,1,-1,40,40,92,24
1.59111995097329e+15,21,9,-3,0,9,9,30,5
1.59111995097329e+15,-21,-15,-4,-3,-12,-12,-33,-30
1.59111995097448e+15,-14,-14,-8,-5,-25,-25,-32,-10
1.59111995097448e+15,-5,-12,-5,-4,-31,-31,-43,5
1.59111995098748e+15,-9,-7,-5,-9,-5,-5,-20,-3
1.59111995098748e+15,12,10,-7,-7,22,22,41,9
1.59111995099539e+15,26,9,-4,-2,-3,-3,23,18
1.59111995099539e+15,0,7,1,10,28,28,2,-9
1.59111995100963e+15,-20,5,25,18,-1,-1,10,-17
1.59111995100963e+15,-3,-17,15,3,-65,-65,-45,-16
1.5911199510165e+15,-13,9,-14,-1,56,56,21,11
1.5911199510165e+15,12,2,-15,-13,19,19,9,10
1.59111995103286e+15,-2,-5,-34,-13,-1,-1,14,-2
1.59111995103286e+15,-3,-6,-17,0,-12,-12,-16,1
1.59111995104739e+15,6,-8,11,-9,-29,-29,-36,1
1.59111995104739e+15,6,1,15,3,-18,-18,-7,4
1.59111995104739e+15,-3,8,4,3,8,8,44,-3
1.59111995104739e+15,5,3,-3,-6,30,30,-8,-6
1.59111995106272e+15,-11,-10,-12,10,-43,-43,-9,-10
1.59111995106272e+15,3,-0,3,-3,-9,-9,-5,9
1.59111995106927e+15,13,9,41,5,13,13,-17,0
1.59111995106927e+15,-32,-9,-5,-1,27,27,-34,-21
1.59111995107679e+15,1,30,-21,-5,101,101,91,20
1.59111995107679e+15,-1,-17,-10,-8,-46,-46,-36,-7
1.59111995109287e+15,5,-0,6,-8,-16,-16,4,3
1.59111995109287e+15,26,14,1,28,21,21,-2,6
1.5911199510946e+15,-6,-0,18,4,-13,-13,-5,-2
1.5911199510946e+15,-10,3,14,1,10,10,9,5
1.59111995111547e+15,-1,-2,-27,-5,0,0,5,3
1.59111995111547e+15,-4,-2,6,-2,-15,-15,6,-1
1.59111995111648e+15,-17,-3,19,22,-24,-24,-18,-15
1.59111995111648e+15,17,11,29,11,4,4,3,0
1.5911199511293e+15,-25,-20,-63,-24,-7,-7,-10,-7
1.5911199511293e+15,-23,-12,-17,-7,-14,-14,-6,-15
1.59111995113715e+15,33,10,15,8,2,2,6,12
1.59111995113715e+15,-19,-11,-12,-27,-10,-10,-11,6
1.59111995116041e+15,-14,-6,10,10,-6,-6,-18,-27
1.59111995116041e+15,-5,5,-13,0,11,11,22,13
1.59111995116141e+15,1,-8,0,-21,-6,-6,-12,-14
1.59111995116141e+15,24,12,-1,21,-4,-4,8,25
1.59111995117586e+15,-14,1,11,20,-3,-3,1,-9
1.59111995117586e+15,0,-6,-2,-41,4,4,9,0
1.59111995117724e+15,14,2,-2,20,-10,-10,-16,-8
1.59111995117724e+15,-1,-2,3,-8,-3,-3,-1,-11
1.59111995119822e+15,16,1,-14,-13,3,3,5,2
1.59111995119822e+15,-6,-5,3,-4,-7,-7,-5,-3
1.59111995119923e+15,1,-0,31,-17,-15,-15,-6,15
1.59111995119923e+15,-21,-3,30,5,0,0,-18,-32
1.59111995121318e+15,-12,-22,-71,-38,-5,-5,-5,-3
1.59111995121318e+15,41,11,32,-20,6,6,5,7
1.59111995121465e+15,-5,-0,-12,0,-1,-1,0,3
1.59111995121465e+15,-42,-2,17,22,5,5,1,-26
1.59111995123531e+15,66,35,52,29,8,8,24,58
1.59111995123531e+15,-16,-10,-23,-7,-10,-10,-3,-2
1.59111995124162e+15,-11,-7,-11,-9,-4,-4,-10,-4
1.59111995124162e+15,-1,-3,-25,5,-2,-2,-8,-1
1.5911199512484e+15,-6,-1,23,3,-3,-3,-8,-17
1.5911199512484e+15,-9,4,4,29,2,2,2,-6
1.59111995126498e+15,-2,-14,-55,-48,-1,-1,5,9
1.59111995126498e+15,-1,-4,-20,-6,1,1,1,-4
1.59111995127348e+15,-6,-0,6,5,2,2,-1,-6
1.59111995127348e+15,3,3,-12,2,1,1,7,10
1.59111995127448e+15,-3,-9,-43,-9,-3,-3,-4,-3
1.59111995127448e+15,2,1,10,-1,-3,-3,0,8
1.59111995129602e+15,-12,-8,-35,-14,0,0,1,-3
1.59111995129602e+15,3,18,80,23,5,5,3,-1
1.59111995129737e+15,-4,-10,-54,-2,-4,-4,-1,-6
1.59111995129737e+15,-1,-6,-2,-18,-5,-5,-5,1
1.59111995130914e+15,13,31,118,44,9,9,6,7
1.59111995130914e+15,7,13,51,11,0,0,5,4
1.59111995132463e+15,-19,-20,-60,-27,-6,-6,-6,-8
1.59111995132463e+15,-6,2,50,-18,-2,-2,-1,-5
1.59111995133275e+15,-4,-3,5,-2,-15,-15,-12,4
1.59111995133275e+15,17,28,79,60,6,6,3,11
1.5911199513347e+15,7,8,-20,18,-1,-1,15,19
1.5911199513347e+15,-23,-16,35,-46,-24,-24,-12,-23
1.59111995135594e+15,3,-3,-48,-40,42,42,18,14
1.59111995135594e+15,-12,2,59,0,-9,-9,-5,-18
1.59111995135708e+15,14,22,87,25,11,11,-8,5
1.59111995135708e+15,10,4,-25,25,-11,-11,18,4
1.59111995136948e+15,1,-5,-30,7,2,2,-33,3
1.59111995136948e+15,5,4,-10,-24,31,31,38,-6
1.59111995137762e+15,-1,5,35,17,0,0,-4,-12
1.59111995137762e+15,14,-6,-81,2,6,6,1,12
1.5911199513934e+15,-4,2,35,9,-7,-7,-7,-14
1.5911199513934e+15,-7,-14,-60,-12,-3,-3,-16,-3
1.59111995139441e+15,-1,3,31,-1,-6,-6,-5,4
1.59111995139441e+15,-7,-6,-34,-6,8,8,-6,-1
1.59111995141494e+15,-10,-7,-25,-3,-3,-3,3,-7
1.59111995141494e+15,-9,-14,-41,-16,-20,-20,-15,1
1.59111995142997e+15,-4,-0,-1,-5,-1,-1,8,-3
1.59111995142997e+15,0,3,7,10,3,3,-4,5
1.5911199514384e+15,-9,-6,6,-7,-16,-16,-1,-11
1.5911199514384e+15,-2,-5,-27,-6,-5,-5,-4,0
1.59111995143902e+15,-1,-0,7,-2,-2,-2,-4,1
1.59111995143902e+15,2,5,18,6,3,3,0,3
1.59111995145177e+15,-10,-9,-44,-7,-7,-7,3,-8
1.59111995145177e+15,16,-0,-13,-12,0,0,-1,2
1.59111995146071e+15,-1,-7,-26,-3,-5,-5,-5,-6
1.59111995146071e+15,0,7,55,1,-6,-6,-6,0
1.59111995147631e+15,-5,-11,-55,-9,-5,-5,3,-6
1.59111995147631e+15,-4,4,34,-5,-2,-2,-2,1
1.59111995147725e+15,-8,-12,-42,-14,-8,-8,-5,-6
1.59111995147725e+15,4,1,-3,2,1,1,3,0
1.59111995148912e+15,-3,4,30,7,-4,-4,0,-5
1.59111995148912e+15,-1,-5,-32,-4,0,0,0,-1
1.59111995150532e+15,6,5,11,9,2,2,1,2
1.59111995150532e+15,0,8,43,-4,2,2,-1,1
1.59111995151347e+15,-8,-4,3,-11,-2,-2,-3,-5
1.59111995151347e+15,-12,-9,-7,-19,-9,-9,-7,-1
1.59111995151448e+15,-7,4,30,8,0,0,3,0
1.59111995151448e+15,1,-7,-61,9,0,0,1,2
1.59111995153572e+15,-3,6,57,-14,-1,-1,2,0
1.59111995153572e+15,14,7,33,10,-3,-3,-1,3
1.59111995153666e+15,-12,1,15,1,3,3,-3,-5
1.59111995153666e+15,0,-4,-25,1,1,1,-2,-8
1.59111995154872e+15,2,8,25,11,2,2,2,2
1.59111995154872e+15,1,-8,-62,0,1,1,1,0
1.59111995157236e+15,-3,1,29,-15,-3,-3,0,1
1.59111995157236e+15,6,-4,-48,4,1,1,0,-1
1.59111995158025e+15,5,10,55,5,0,0,2,5
1.59111995158025e+15,-14,-1,35,9,-12,-12,-7,-10
1.59111995158226e+15,3,-0,-13,-1,0,0,-2,1
1.59111995158226e+15,-5,-2,-6,1,2,2,2,-3
1.59111995159601e+15,10,1,-21,-1,4,4,5,1
1.59111995159601e+15,-9,-21,-102,-30,-2,-2,-4,-6
1.59111995159701e+15,-7,3,24,7,-3,-3,-2,-2
1.59111995159701e+15,-5,11,77,15,-3,-3,-6,-1
1.59111995160916e+15,2,2,22,3,-1,-1,-5,-2
1.59111995160916e+15,-2,-4,-60,16,0,0,2,1
1.59111995162426e+15,1,4,3,11,3,3,1,1
1.59111995162426e+15,-2,5,23,-12,5,5,2,2
1.59111995163276e+15,-11,-13,-68,2,-6,-6,-4,-5
1.59111995163276e+15,-9,-10,-32,-14,-5,-5,-3,-3
1.59111995163392e+15,-1,8,29,8,10,10,6,-1
1.59111995163392e+15,4,-0,20,-1,-5,-5,-4,-1
1.59111995165595e+15,-9,-1,-15,1,3,3,3,-3
1.59111995165595e+15,9,5,14,-1,1,1,-2,1
1.59111995165696e+15,5,-1,20,-10,-7,-7,-2,-3
1.59111995165696e+15,-8,-11,-79,-1,0,0,0,-2
1.59111995166858e+15,5,3,11,6,0,0,0,-1
1.59111995166858e+15,-1,-0,-13,-14,4,4,0,2
1.59111995167808e+15,-8,11,62,38,-6,-6,-6,-6
1.59111995167808e+15,-3,-20,-99,-35,3,3,-2,-4
1.59111995169305e+15,-6,-5,9,-21,-4,-4,-2,-9
1.59111995169305e+15,0,15,72,35,-2,-2,2,0
1.59111995169404e+15,5,-9,-54,-23,-1,-1,1,1
1.59111995169404e+15,4,2,16,1,-5,-5,-2,3
1.59111995171542e+15,-7,-6,-32,0,-2,-2,-2,1
1.59111995171542e+15,-5,-11,-29,-31,-2,-2,-1,-2
1.59111995171747e+15,-3,9,42,11,2,2,-1,0
1.59111995171747e+15,-6,-23,-76,-39,-8,-8,-7,-5
1.59111995172954e+15,-8,16,89,33,-3,-3,-4,-4
1.59111995172954e+15,-3,1,19,-7,-3,-3,-1,0
1.59111995173771e+15,1,2,-2,6,1,1,-2,0
1.59111995173771e+15,4,2,-4,3,-4,-4,2,4
1.59111995175263e+15,3,-4,-12,-3,0,0,-5,-3
1.59111995175263e+15,2,-0,3,-7,2,2,3,1
1.59111995175943e+15,-1,-2,-15,-1,1,1,1,0
1.59111995175943e+15,-1,11,37,22,2,2,3,1
1.59111995177488e+15,-3,-3,0,-6,-4,-4,-4,-4
1.59111995177488e+15,-1,4,15,12,1,1,-2,-2
1.59111995178274e+15,1,-10,-26,-26,5,5,-3,-3
1.59111995178274e+15,-4,4,33,5,-9,-9,0,-2
1.59111995178925e+15,1,9,5,29,4,4,2,2
1.59111995178925e+15,2,-1,-20,0,1,1,0,0
1.59111995179779e+15,-3,-1,6,9,-9,-9,-6,-2
1.59111995179779e+15,-2,-8,-11,-44,1,1,-2,-2
1.59111995181266e+15,4,-0,-2,1,-1,-1,-1,1
1.59111995181266e+15,-8,2,1,8,9,9,0,-3
1.59111995181946e+15,5,4,2,2,-7,-7,3,1
1.59111995181946e+15,0,1,6,10,0,0,-3,-2
1.59111995183541e+15,-4,-4,32,-28,-8,-8,-2,-2
1.59111995183541e+15,-9,-4,1,-1,-5,-5,-5,-5
1.59111995184187e+15,1,-3,-6,4,-14,-14,-12,1
1.59111995184187e+15,-1,1,-24,2,19,19,11,-2
1.59111995184869e+15,1,-0,10,-10,1,1,5,1
1.59111995184869e+15,4,5,23,1,8,8,-1,0
1.59111995185756e+15,0,-5,-19,-15,-8,-8,0,1
1.59111995185756e+15,0,2,21,7,-7,-7,-6,0
1.59111995187246e+15,1,-7,-31,-4,-2,-2,-5,-4
1.59111995187246e+15,0,2,-6,10,0,0,1,1
1.59111995187915e+15,-4,-7,-17,-20,3,3,-2,-4
1.59111995187915e+15,1,7,29,16,2,2,-3,-1
1.59111995189587e+15,1,1,-16,2,2,2,4,2
1.59111995189587e+15,-1,-4,-5,-5,-11,-11,-4,-1
1.59111995189709e+15,-3,-2,0,-7,5,5,-7,-11
1.59111995189709e+15,-2,2,24,0,-1,-1,1,0
1.5911199519184e+15,1,-1,-17,0,1,1,-1,3
1.5911199519184e+15,1,-0,9,-5,-4,-4,2,4
1.59111995191941e+15,-3,-5,-30,-6,-2,-2,2,1
1.59111995191941e+15,-4,-0,11,-1,-3,-3,-3,-1
1.5911199519317e+15,-2,4,15,14,1,1,-3,-2
1.5911199519317e+15,6,-8,-23,-6,-21,-21,-23,6
1.5911199519472e+15,-4,4,9,-7,19,19,26,-7
1.5911199519472e+15,-2,-7,-23,-15,4,4,0,-4
1.59111995195587e+15,2,1,-2,2,-5,-5,-3,0
1.59111995195587e+15,1,6,22,5,5,5,0,-5
1.59111995195687e+15,0,2,15,13,-11,-11,-11,-2
1.59111995195687e+15,2,4,20,6,-4,-4,-2,5
1.59111995196868e+15,-2,-16,-37,-42,-5,-5,0,-1
1.59111995196868e+15,-3,8,26,28,-1,-1,-1,-3
1.59111995197837e+15,0,-2,-22,-1,0,0,0,3
1.59111995197837e+15,4,7,14,13,3,3,1,2
1.59111995199322e+15,-10,-4,27,-10,-12,-12,-11,-7
1.59111995199322e+15,-1,-6,-10,-27,4,4,2,0
1.59111995199872e+15,7,19,45,44,1,1,2,9
1.59111995199872e+15,-5,-12,-43,-9,-18,-18,-14,-3
1.59111995201528e+15,1,1,-27,3,13,13,7,-1
1.59111995201528e+15,-3,-5,-15,-15,4,4,4,-3
1.59111995201728e+15,-4,-7,-4,-13,-12,-12,-7,-3
1.59111995201728e+15,2,3,11,2,5,5,-5,-1
1.59111995203828e+15,-1,-7,-16,-1,-24,-24,-13,0
1.59111995203828e+15,0,-0,-2,7,5,5,6,-3
1.59111995203923e+15,-2,-4,-8,-39,9,9,2,-1
1.59111995203923e+15,-3,7,3,15,5,5,1,0
1.59111995205305e+15,-4,7,-2,20,10,10,2,0
1.59111995205305e+15,5,7,-3,6,11,11,5,4
1.59111995206629e+15,-1,-5,-16,4,-12,-12,-4,-4
1.59111995206629e+15,-5,-4,7,-10,-7,-7,0,-4
1.59111995207592e+15,5,1,4,-4,0,0,2,-3
1.59111995207592e+15,-4,-8,-14,-16,-11,-11,-1,-1
1.5911199520773e+15,-17,-4,-6,-1,3,3,-5,-1
1.5911199520773e+15,1,4,13,7,2,2,4,-1
1.59111995209835e+15,8,3,15,12,0,0,-22,0
1.59111995209835e+15,4,8,8,5,23,23,13,-2
1.5911199520994e+15,3,-3,-12,-11,-4,-4,8,2
1.5911199520994e+15,-5,-10,-21,-5,-10,-10,-5,-4
1.59111995211253e+15,-5,-9,-21,-27,-4,-4,-7,-1
1.59111995211253e+15,1,4,19,9,-4,-4,-3,1
1.59111995211947e+15,2,4,11,12,-7,-7,-10,1
1.59111995211947e+15,3,6,16,-9,14,14,15,5
1.59111995213488e+15,-2,-6,-7,6,-18,-18,3,-1
1.59111995213488e+15,-1,4,7,6,4,4,-1,1
1.59111995214256e+15,-4,-4,-5,-3,-1,-1,-2,-4
1.59111995214256e+15,0,6,13,16,-3,-3,-11,-1
1.59111995215795e+15,-1,2,-9,-9,21,21,14,-3
1.59111995215795e+15,-8,-7,-12,-9,-15,-15,-1,-2
1.59111995215895e+15,-2,-5,-3,-1,-16,-16,-6,0
1.59111995215895e+15,7,3,6,-1,26,26,-9,-6
1.5911199521727e+15,0,5,-2,0,4,4,31,3
1.5911199521727e+15,-13,-10,-12,-6,-7,-7,-14,-10
1.59111995217955e+15,-6,-3,7,0,-7,-7,-6,0
1.59111995217955e+15,-12,-8,-8,6,-14,-14,-23,-17
1.591119952196e+15,3,4,7,10,2,2,-5,2
1.591119952196e+15,14,7,-10,5,9,9,5,7
1.59111995219701e+15,-3,2,8,10,-16,-16,-9,6
1.59111995219701e+15,-22,-3,-5,3,4,4,7,-8
1.59111995222593e+15,-2,2,3,0,17,17,1,-4
1.59111995222593e+15,4,-7,-9,-11,-18,-18,-10,3
1.59111995222644e+15,7,5,-10,-13,29,29,25,1
1.59111995222644e+15,7,-7,-2,-4,-15,-15,-32,-2
1.59111995223171e+15,2,-17,-3,-1,-60,-60,-74,6
1.59111995223171e+15,-1,17,5,-3,53,53,66,-3
1.59111995224072e+15,8,21,-1,3,61,61,51,14
1.59111995224072e+15,-4,1,-5,1,-14,-14,29,8
1.59111995225489e+15,20,-5,1,-15,-4,-4,-11,-9
1.59111995225489e+15,-33,-17,5,2,-39,-39,-54,-9
1.59111995225689e+15,3,7,-8,16,19,19,-15,-4
1.59111995225689e+15,4,4,9,5,-15,-15,14,0
1.59111995227821e+15,5,9,-14,3,12,12,24,11
1.59111995227821e+15,4,12,8,2,46,46,30,-3
1.59111995228491e+15,4,-12,2,-13,-44,-44,-19,0
1.59111995228491e+15,-13,-5,-16,-10,19,19,1,-5
1.59111995229917e+15,-6,-24,-5,-3,-88,-88,-76,5
1.59111995229917e+15,-6,17,-6,-9,83,83,79,-12
1.59111995230015e+15,-4,-1,-1,-2,-16,-16,8,2
1.59111995230015e+15,14,19,22,17,30,30,26,12
1.5911199523141e+15,-12,-2,-8,-11,9,9,13,-2
1.5911199523141e+15,7,-11,0,1,-51,-51,-38,-4
1.59111995231514e+15,9,-13,-3,3,-9,-9,-102,-4
1.59111995231514e+15,7,5,-3,-20,-49,-49,91,18
1.59111995233787e+15,-13,33,6,14,79,79,116,11
1.59111995233787e+15,-5,-9,-2,8,-37,-37,-32,-5
1.59111995233787e+15,-2,-1,7,6,-8,-8,-4,-8
1.59111995233787e+15,17,6,17,15,-14,-14,-33,13
1.59111995236008e+15,-15,-17,-32,-21,5,5,-23,-29
1.59111995236008e+15,8,-24,-5,-10,-103,-103,-46,-2
1.59111995236008e+15,-7,19,-1,-10,77,77,82,9
1.59111995236008e+15,-3,-2,0,-1,-7,-7,-14,3
1.59111995237516e+15,-1,8,2,-2,7,7,35,8
1.59111995237516e+15,6,-9,-1,1,-22,-22,-52,-14
1.59111995237516e+15,30,-8,-25,-13,-40,-40,-7,5
1.59111995237516e+15,-11,-6,4,-9,-8,-8,-19,11
1.59111995239775e+15,-52,-13,15,14,2,2,-32,-35
1.59111995239775e+15,-1,-18,-9,-6,-21,-21,-64,-16
1.59111995239775e+15,-6,9,14,7,15,15,30,-5
1.59111995239775e+15,5,6,-14,-7,28,28,32,-7
1.59111995242008e+15,12,-4,-8,-2,-18,-18,-23,4
1.59111995242008e+15,-3,5,-1,-3,15,15,17,6
1.59111995242008e+15,-10,-10,-3,-15,-8,-8,-4,-9
1.59111995242008e+15,14,9,-1,14,14,14,-11,0
1.59111995243514e+15,9,-20,18,9,-92,-92,-91,-3
1.59111995243514e+15,-1,39,-4,11,96,96,125,22
1.59111995243514e+15,1,-3,-2,-4,-14,-14,-11,2
1.59111995243514e+15,-12,-19,-10,-10,-21,-21,-42,-24
1.59111995247346e+15,17,16,3,-3,17,17,73,16
1.59111995247346e+15,-8,-9,0,-6,-20,-20,-19,1
1.59111995247346e+15,-4,-5,2,1,-33,-33,-4,7
1.59111995247346e+15,-8,-10,-2,-4,-3,-3,-36,-8
1.59111995248001e+15,16,4,-1,-2,15,15,-5,-1
1.59111995248001e+15,-8,2,7,4,-6,-6,0,9
1.59111995248075e+15,-19,-7,-5,-3,5,5,-18,-19
1.59111995248075e+15,-9,-11,-13,-10,-12,-12,-15,-16
1.59111995250345e+15,12,9,3,6,23,23,10,6
1.59111995250345e+15,7,-8,-7,-15,-23,-23,-18,0
1.59111995250345e+15,-8,-2,9,20,-3,-3,-27,-21
1.59111995250345e+15,7,13,3,6,24,24,26,18
1.59111995251779e+15,5,-4,-8,-4,-17,-17,6,-2
1.59111995251779e+15,11,-0,-1,-8,-14,-14,1,13
1.5911199525251e+15,5,8,1,-5,55,55,5,-10
1.5911199525251e+15,-47,-19,-3,-11,-24,-24,-22,-17
1.59111995253931e+15,-3,-1,-4,0,14,14,-3,-5
1.59111995253931e+15,-8,-4,-4,6,-6,-6,-15,-8
1.59111995254026e+15,23,3,-4,-7,-18,-18,8,10
1.59111995254026e+15,15,4,4,-4,-2,-2,7,4
1.59111995255388e+15,-9,12,23,31,24,24,0,-1
1.59111995255388e+15,-4,-14,-38,-34,-1,-1,-5,-9
1.59111995256293e+15,-4,-6,7,2,-31,-31,-10,10
1.59111995256293e+15,3,5,1,14,11,11,-2,-2
1.59111995257807e+15,-10,-6,-8,-16,-11,-11,0,-3
1.59111995257807e+15,5,6,15,12,3,3,0,0
1.59111995257807e+15,-12,-4,-7,-3,-4,-4,5,-6
1.59111995257807e+15,-3,-3,2,-5,1,1,-12,-9
1.59111995259166e+15,9,10,5,4,26,26,21,5
1.59111995259166e+15,1,6,3,8,13,13,1,13
1.59111995259843e+15,-8,-11,-7,-8,-7,-7,-27,-16
1.59111995259843e+15,3,-6,1,1,-18,-18,-13,-11
1.59111995261468e+15,-9,-3,-3,-4,-6,-6,4,-2
1.59111995261468e+15,1,4,0,3,10,10,6,7
1.59111995261568e+15,-6,-5,-5,-10,-19,-19,0,3
1.59111995261568e+15,5,5,0,17,4,4,1,-5
1.59111995263774e+15,-6,-2,-6,-5,2,2,-5,2
1.59111995263774e+15,-3,-1,6,0,-4,-4,-2,-3
1.59111995263774e+15,-4,-0,1,-3,-1,-1,3,0
1.59111995263774e+15,0,-11,-9,-10,-26,-26,-17,-4
1.59111995265276e+15,-7,3,-7,3,19,19,7,-6
1.59111995265276e+15,-1,1,5,7,-8,-8,-4,-2
1.59111995265946e+15,-5,5,1,9,4,4,7,4
1.59111995265946e+15,0,-3,-2,-12,-2,-2,-7,-1
1.59111995268232e+15,-4,-6,-2,-11,-10,-10,-8,-5
1.59111995268232e+15,4,3,-3,-2,7,7,11,2
1.59111995268332e+15,-1,-0,-2,4,0,0,3,-4
1.59111995268332e+15,-3,-2,0,0,-5,-5,-1,0
1.59111995269782e+15,1,-9,-7,-10,-6,-6,-17,-9
1.59111995269782e+15,-1,1,-1,-8,6,6,1,1
1.59111995269782e+15,1,2,1,8,-3,-3,-1,1
1.59111995269782e+15,0,-3,-4,-3,-4,-4,-2,-2
1.59111995271187e+15,-1,-2,0,-4,-5,-5,-1,-6
1.59111995271187e+15,-1,-3,-1,-2,1,1,-11,-2
1.59111995271928e+15,-5,-4,1,-2,-23,-23,-2,0
1.59111995271928e+15,4,15,1,4,44,44,24,15
1.5911199527354e+15,0,-5,-6,-3,-12,-12,-11,-3
1.5911199527354e+15,-4,-5,3,2,-13,-13,-9,-13
1.59111995274251e+15,4,2,-1,0,3,3,3,2
1.59111995274251e+15,-1,-3,-4,-5,-11,-11,3,-4
1.59111995275757e+15,3,1,-6,-7,1,1,8,4
1.59111995275757e+15,-4,-4,2,3,-6,-6,-12,-12
1.59111995275757e+15,4,1,-2,-4,-3,-3,1,10
1.59111995275757e+15,1,1,2,-2,2,2,1,1
1.59111995277178e+15,-4,2,4,2,3,3,5,0
1.59111995277178e+15,0,-1,0,-1,-7,-7,-2,-2
1.59111995277909e+15,-3,2,2,5,6,6,1,-2
1.59111995277909e+15,-3,-3,-6,-5,-5,-5,-3,3
1.59111995279503e+15,2,2,0,0,3,3,1,5
1.59111995279503e+15,-7,-4,1,0,-8,-8,-9,-5
1.59111995280245e+15,-6,-4,-6,-8,4,4,0,-8
1.59111995280245e+15,6,4,-2,-2,5,5,6,3
1.59111995282602e+15,4,2,8,5,-4,-4,-6,-2
1.59111995282602e+15,-11,-4,-11,-2,-1,-1,-5,-2
1.59111995282602e+15,0,-8,-17,-14,-9,-9,-4,-4
1.59111995282602e+15,-6,-12,-7,-7,-18,-18,-25,-8
1.59111995283168e+15,-6,6,31,11,-3,-3,7,1
1.59111995283168e+15,6,15,7,11,43,43,26,4
1.59111995283944e+15,1,3,0,1,-2,-2,13,8
1.59111995283944e+15,0,-2,-18,-2,-1,-1,1,3
1.59111995285524e+15,2,-7,-13,-11,-13,-13,-13,1
1.59111995285524e+15,0,-8,-8,-6,-9,-9,-21,-7
1.59111995285524e+15,6,-10,-8,4,-4,-4,-58,-14
1.59111995285524e+15,-11,-12,0,-7,-33,-33,-19,-14
1.59111995287723e+15,-2,17,-20,-9,38,38,73,29
1.59111995287723e+15,7,15,7,9,34,34,24,3
1.59111995287823e+15,-10,-4,19,2,-7,-7,-15,-13
1.59111995287823e+15,-1,-5,-12,-1,-11,-11,-12,4
1.591119952908e+15,4,-6,16,-5,-26,-26,-20,-3
1.591119952908e+15,-11,1,-13,-12,-6,-6,52,7
1.591119952909e+15,5,-4,8,-2,-9,-9,-3,-18
1.591119952909e+15,0,-12,10,6,20,20,-100,-22
1.59111995291518e+15,-5,18,-9,19,-1,-1,87,6
1.59111995291518e+15,-1,-5,-12,5,-6,-6,-45,-10
1.59111995291518e+15,8,3,-15,-26,-5,-5,63,43
1.59111995291518e+15,-18,-5,12,-2,-14,-14,-8,-11
1.59111995293688e+15,9,-0,-5,-30,19,19,-34,-8
1.59111995293688e+15,-9,-29,10,4,-14,-14,-49,-47
1.59111995293789e+15,-1,10,15,37,14,14,-5,-30
1.59111995293789e+15,-10,-33,-23,-28,-44,-44,-18,-22
1.59111995295971e+15,1,6,-5,-20,19,19,-1,10
1.59111995295971e+15,-17,20,-16,39,-9,-9,29,-7
1.59111995296654e+15,9,-15,-8,-93,9,9,9,13
1.59111995296654e+15,49,49,52,40,105,105,90,25
1.59111995297499e+15,16,17,31,91,-18,-18,-50,-16
1.59111995297499e+15,-36,-7,-6,61,-30,-30,-21,14
1.59111995297499e+15,-4,24,-30,13,36,36,8,17
1.59111995297499e+15,10,-25,-16,-87,-37,-37,-32,-6
1.59111995299766e+15,-47,-48,-34,-92,-33,-33,8,-12
1.59111995299766e+15,-25,-24,-31,-71,-53,-53,-45,33
1.59111995299841e+15,48,16,64,51,-22,-22,-28,12
1.59111995299841e+15,-42,-4,-47,5,-13,-13,39,-27
1.59111995302688e+15,34,25,-24,-40,72,72,21,-14
1.59111995302688e+15,12,-26,47,-60,-7,-7,-21,-41
1.59111995302788e+15,-4,31,37,73,-11,-11,16,48
1.59111995302788e+15,24,51,53,117,12,12,38,24
1.59111995305111e+15,-17,-34,-60,-17,-64,-64,-103,-7
1.59111995305111e+15,29,9,-7,-108,32,32,93,24
1.5911199530521e+15,7,-20,-16,-73,-17,-17,24,17
1.5911199530521e+15,-13,6,12,13,18,18,13,-1
1.59111995305295e+15,-25,-16,-17,-33,10,10,50,-8
1.59111995305295e+15,13,-5,10,27,-28,-28,-80,3
1.59111995305617e+15,26,3,27,58,12,12,-40,-38
1.59111995305617e+15,-19,12,-54,-29,38,38,44,17
1.59111995307252e+15,9,-10,43,-58,-5,-5,-8,-6
1.59111995307252e+15,-22,-7,-62,16,21,21,0,-19
1.59111995307252e+15,0,18,22,60,-9,-9,30,24
1.59111995307252e+15,-17,24,-53,8,48,48,66,51
1.59111995308779e+15,-11,-29,12,32,-62,-62,-90,-35
1.59111995308779e+15,30,-8,22,-86,-1,-1,-6,16
1.59111995310256e+15,-27,-8,15,18,-8,-8,-16,-44
1.59111995310256e+15,10,12,-6,22,15,15,27,32
1.59111995311749e+15,33,23,-13,4,33,33,36,42
1.59111995311749e+15,-11,-15,26,-34,-39,-39,-31,-5
1.59111995311749e+15,-44,-9,-35,19,16,16,-8,-37
1.59111995311749e+15,46,-19,17,-30,-51,-51,-29,18
1.59111995313933e+15,-22,-21,65,-75,-6,-6,-38,16
1.59111995313933e+15,-6,43,-20,71,48,48,87,20
1.59111995314005e+15,4,38,-6,29,68,68,63,6
1.59111995314005e+15,-8,-18,-3,62,-34,-34,-89,-63
1.59111995315502e+15,9,8,-15,122,-33,-33,-32,7
1.59111995315502e+15,14,-7,16,-36,-17,-17,-1,34
1.59111995315502e+15,-9,-23,-12,-119,3,3,8,10
1.59111995315502e+15,0,-12,-47,-49,0,0,9,-12
1.59111995317784e+15,15,14,21,-30,30,30,27,5
1.59111995317784e+15,-2,8,14,-11,22,22,6,5
1.59111995317784e+15,-4,11,-19,46,-3,-3,3,6
1.59111995317784e+15,-6,-6,26,7,-23,-23,-9,1
1.59111995319989e+15,-23,2,-11,12,10,10,31,3
1.59111995319989e+15,0,-13,1,-28,-5,-5,-27,-28
1.59111995320768e+15,14,-18,17,24,-67,-67,-62,-9
1.59111995320768e+15,3,4,30,-95,17,17,48,23
1.59111995321523e+15,-24,17,14,32,27,27,37,-6
1.59111995321523e+15,19,17,-12,127,-40,-40,3,2
1.59111995321523e+15,-16,-29,6,-60,-37,-37,-56,-24
1.59111995321523e+15,0,-24,-9,-95,9,9,-16,-21
1.59111995323785e+15,20,19,30,5,26,26,68,24
1.59111995323785e+15,9,44,36,68,38,38,30,22
1.59111995323785e+15,2,26,1,98,27,27,6,6
1.59111995323785e+15,-18,7,28,42,-20,-20,-5,-3
1.59111995325949e+15,-27,-24,-51,-31,-8,-8,-26,-30
1.59111995325949e+15,-15,-43,-40,-81,-13,-13,-28,-42
1.59111995326049e+15,20,5,-25,-33,-15,-15,38,51
1.59111995326049e+15,-14,-16,52,10,-13,-13,-38,-22
1.59111995327514e+15,-12,-33,-82,-84,9,9,-4,-18
1.59111995327514e+15,8,7,36,75,-8,-8,-37,-20
1.59111995327562e+15,-17,-16,-25,-93,1,1,10,-1
1.59111995327562e+15,21,14,38,2,30,30,0,4
1.59111995329764e+15,27,39,54,127,-9,-9,-18,-9
1.59111995329764e+15,-19,7,2,48,-6,-6,9,26
1.59111995329838e+15,1,-36,-55,-63,11,11,-40,-28
1.59111995329838e+15,3,15,25,72,-18,-18,2,6
1.59111995331998e+15,8,5,-19,-9,0,0,0,0
1.59111995331998e+15,-27,-11,-45,-4,4,4,-4,-50
1.59111995331998e+15,13,10,31,-69,-16,-16,62,60
1.59111995331998e+15,-15,-24,-43,-57,-2,-2,-11,-17
1.59111995333516e+15,-14,-13,24,-42,-6,-6,-22,-16
1.59111995333516e+15,18,29,3,43,19,19,27,28
1.59111995333516e+15,-6,-23,6,-10,-12,-12,-27,-34
1.59111995333516e+15,3,-11,-17,-87,9,9,13,-15
1.59111995336503e+15,17,36,8,101,8,8,28,35
1.59111995336503e+15,-43,-11,-14,20,-3,-3,-23,-20
1.59111995337163e+15,1,17,-14,74,17,17,21,4
1.59111995337163e+15,42,22,15,40,1,1,15,28
1.59111995338143e+15,-10,-39,-15,-89,-51,-51,-44,1
1.59111995338143e+15,-20,-18,5,-128,26,26,18,-8
1.59111995338143e+15,-1,2,-13,35,-11,-11,-48,-37
1.59111995338143e+15,-33,25,13,109,37,37,27,-3
1.59111995339506e+15,6,-18,6,-12,-44,-44,-43,-14
1.59111995339506e+15,9,-27,-31,-64,-22,-22,-25,-14
1.59111995339506e+15,-23,-8,-18,-49,16,16,12,-18
1.59111995339506e+15,40,13,35,-42,-14,-14,15,41
1.59111995341739e+15,15,40,12,108,34,34,29,10
1.59111995341739e+15,5,-1,23,-14,-1,-1,15,-3
1.59111995341739e+15,-33,-5,2,15,4,4,-9,-17
1.59111995341739e+15,26,10,15,16,-2,-2,-34,-3
1.59111995343905e+15,-51,-50,-61,-55,-33,-33,-24,-30
1.59111995343905e+15,45,25,23,45,0,0,-7,35
1.59111995344006e+15,-35,-39,-55,-92,-19,-19,-35,-22
1.59111995344006e+15,-16,7,12,48,12,12,-15,-24
1.59111995345446e+15,18,20,11,9,15,15,45,41
1.59111995345446e+15,3,-4,-1,-6,-6,-6,7,-3
1.59111995346274e+15,5,4,23,17,-2,-2,-8,4
1.59111995346274e+15,-19,-2,-43,10,-6,-6,8,13
1.59111995347713e+15,-14,-0,26,-9,3,3,-3,-20
1.59111995347713e+15,-37,-17,-51,1,-11,-11,-9,-8
1.59111995347818e+15,29,8,48,-25,-5,-5,11,17
1.59111995347818e+15,-11,-26,-62,-26,-29,-29,-20,-20
1.59111995350041e+15,0,-4,-17,-41,12,12,-2,-2
1.59111995350041e+15,13,27,19,25,35,35,34,30
1.59111995350141e+15,8,13,-4,75,0,0,-1,-13
1.59111995350141e+15,-17,-12,10,15,-25,-25,-24,-27
1.59111995351454e+15,-4,-2,-9,-24,7,7,21,22
1.59111995351454e+15,1,-14,6,-36,-11,-11,-17,-18
1.5911199535227e+15,20,5,-2,-19,18,18,15,-4
1.5911199535227e+15,3,4,-7,-15,11,11,28,16
1.59111995353767e+15,-19,3,12,1,9,9,11,-7
1.59111995353767e+15,3,-5,11,6,-14,-14,-38,-11
1.59111995353792e+15,6,3,9,8,-2,-2,-2,8
1.59111995353792e+15,-13,-13,-16,-26,-14,-14,-5,5
1.59111995355982e+15,21,14,10,12,18,18,13,5
1.59111995355982e+15,-12,4,-1,3,14,14,5,4
1.5911199535607e+15,-34,-35,-26,-29,-42,-42,-58,-31
1.5911199535607e+15,25,8,8,12,-3,-3,-7,11
1.59111995357426e+15,5,22,19,51,15,15,23,12
1.59111995357426e+15,6,-10,-10,-20,-20,-20,1,8
1.5911199535825e+15,-8,1,-2,-20,15,15,9,11
1.5911199535825e+15,-34,-11,-5,-15,-6,-6,5,-22
1.59111995360501e+15,-19,-3,42,20,-9,-9,-7,-29
1.59111995360501e+15,-13,-16,-43,-9,-14,-14,-35,-4
1.59111995360602e+15,-5,12,-3,12,24,24,22,-4
1.59111995360602e+15,16,12,21,34,-3,-3,6,16
1.59111995362004e+15,17,-6,-21,-23,-7,-7,-10,0
1.59111995362004e+15,15,13,20,6,14,14,10,8
1.59111995362004e+15,0,12,-2,19,7,7,27,12
1.59111995362004e+15,8,-7,12,-22,-19,-19,-5,-13
1.59111995363437e+15,-27,-25,-46,-13,-14,-14,-47,-25
1.59111995363437e+15,14,5,19,7,-7,-7,16,-1
1.5911199536494e+15,16,9,-26,-21,22,22,29,28
1.5911199536494e+15,-10,-14,-13,-32,5,5,-4,-22
1.59111995365883e+15,10,-4,37,28,-46,-46,-42,10
1.59111995365883e+15,-2,13,23,30,9,9,25,6
1.59111995365983e+15,-26,-9,10,-3,-4,-4,-13,-23
1.59111995365983e+15,10,5,-14,-17,23,23,15,1
1.59111995368048e+15,11,14,-24,-17,29,29,52,34
1.59111995368048e+15,-26,-43,-22,-76,-41,-41,-65,-35
1.59111995368742e+15,46,30,51,55,1,1,12,35
1.59111995368742e+15,-33,-12,-6,-3,-14,-14,-12,-16
1.59111995370339e+15,22,6,-8,7,14,14,-15,-8
1.59111995370339e+15,14,20,27,51,12,12,16,-4
1.59111995370339e+15,-27,-24,-51,-62,-13,-13,-10,6
1.59111995370339e+15,-33,-4,11,8,-6,-6,1,-15
1.59111995371714e+15,14,14,45,14,10,10,14,3
1.59111995371714e+15,7,5,-20,11,2,2,2,13
1.59111995371819e+15,-4,-6,5,1,-18,-18,-6,-3
1.59111995371819e+15,67,6,-21,-3,-7,-7,-22,11
1.59111995374743e+15,-2,4,-11,-27,16,16,31,9
1.59111995374743e+15,25,4,2,10,2,2,-10,-15
1.59111995375486e+15,-24,-4,10,32,-2,-2,-26,-28
1.59111995375486e+15,31,10,-4,9,-6,-6,17,34
1.59111995376419e+15,-2,-9,-17,-15,5,5,-12,-17
1.59111995376419e+15,25,28,48,26,25,25,37,26
1.5911199537652e+15,3,-14,-16,-11,-14,-14,-34,-30
1.5911199537652e+15,-23,-2,1,-10,6,6,-10,14
1.59111995377753e+15,3,-0,-2,-23,1,1,20,0
1.59111995377753e+15,2,5,8,19,-9,-9,10,4
1.59111995377753e+15,1,8,4,-6,19,19,27,8
1.59111995377753e+15,-16,-17,18,17,-24,-24,-55,-38
1.59111995380822e+15,-16,-11,-25,-24,-8,-8,-10,6
1.59111995380822e+15,-10,-1,4,14,2,2,2,-27
1.59111995380822e+15,4,12,-15,6,12,12,35,38
1.59111995380822e+15,23,6,4,-18,13,13,11,13
1.59111995381453e+15,-27,-39,-28,1,-45,-45,-90,-65
1.59111995381453e+15,-31,-1,31,-4,3,3,7,-5
1.5911199538227e+15,-7,3,-3,17,16,16,-4,-15
1.5911199538227e+15,-15,8,6,-18,7,7,41,33
1.59111995383771e+15,6,-3,2,26,-23,-23,-19,-10
1.59111995383771e+15,10,-4,-22,-18,6,6,-2,0
1.59111995383771e+15,-2,8,9,0,5,5,27,12
1.59111995383771e+15,3,-3,4,10,-15,-15,-21,2
1.5911199538605e+15,6,23,22,10,32,32,34,31
1.5911199538605e+15,-20,-22,-21,-36,-28,-28,-28,-8
1.5911199538675e+15,26,2,8,-5,-3,-3,1,1
1.5911199538675e+15,-37,-2,-40,20,18,18,13,-29
1.59111995387458e+15,-10,23,60,43,19,19,-1,22
1.59111995387458e+15,2,-10,-9,-3,-24,-24,-15,3
1.5911199538817e+15,-7,-14,-37,-63,-1,-1,11,-7
1.5911199538817e+15,23,1,2,0,-6,-6,-15,-4
1.59111995389808e+15,-19,-3,-1,10,-5,-5,-2,-12
1.59111995389808e+15,-6,15,6,34,18,18,18,8
1.59111995390524e+15,18,5,8,17,-7,-7,-6,7
1.59111995390524e+15,13,-1,14,10,-5,-5,-24,-10
1.59111995391915e+15,-4,-8,-22,-68,13,13,17,-3
1.59111995391915e+15,-3,-2,-1,-17,-9,-9,12,9
1.59111995392013e+15,0,-6,24,37,-35,-35,-52,-13
1.59111995392013e+15,-4,2,-16,-53,16,16,33,25
1.59111995394346e+15,-21,-18,31,37,-41,-41,-67,-48
1.59111995394346e+15,30,11,-2,-16,23,23,16,10
1.59111995394346e+15,-38,-2,0,2,11,11,12,-19
1.59111995394346e+15,34,31,40,30,21,21,38,34
1.5911199539569e+15,35,7,-14,-2,-5,-5,3,21
1.5911199539569e+15,-3,-1,20,12,-3,-3,-21,-13
1.59111995395763e+15,-39,-11,-12,-8,-4,-4,-15,-10
1.59111995395763e+15,-29,-17,-13,0,-19,-19,-21,-21
1.5911199539802e+15,-4,-10,-43,-44,-3,-3,21,10
1.5911199539802e+15,32,14,-2,-3,15,15,14,24
1.5911199539802e+15,18,3,8,15,-3,-3,-11,-6
1.5911199539802e+15,29,6,-23,-9,8,8,8,22
1.59111995400336e+15,-50,-1,5,18,12,12,3,-13
1.59111995400336e+15,-27,-22,-40,-26,-20,-20,-14,-12
1.59111995400336e+15,23,10,3,-9,17,17,17,15
1.59111995400336e+15,-8,13,-1,14,20,20,31,9
1.59111995401749e+15,27,-24,11,34,-54,-54,-85,-57
1.59111995401749e+15,-26,2,-6,11,3,3,10,11
1.59111995401749e+15,25,2,7,4,-8,-8,-5,-1
1.59111995401749e+15,-11,-0,-14,-23,12,12,13,12
1.59111995403972e+15,54,10,15,-37,13,13,14,10
1.59111995403972e+15,23,20,3,26,12,12,30,28
1.59111995404073e+15,24,20,23,31,18,18,23,15
1.59111995404073e+15,-68,-43,-23,-20,-44,-44,-61,-70
1.59111995406253e+15,16,7,9,-13,4,4,18,23
1.59111995406253e+15,-30,-17,2,-30,-17,-17,2,-31
1.59111995406253e+15,17,13,25,20,13,13,2,-3
1.59111995406253e+15,-4,-11,-4,4,-37,-37,-6,3
1.59111995407773e+15,-36,-8,0,-3,-9,-9,-11,-9
1.59111995407773e+15,24,23,4,47,27,27,22,22
1.59111995407773e+15,13,-16,-74,-103,5,5,25,23
1.59111995407773e+15,-28,-1,36,50,-12,-12,-30,-30
1.5911199540995e+15,60,16,-36,-14,20,20,26,34
1.5911199540995e+15,-21,-14,-33,-1,-14,-14,-21,-12
1.59111995410045e+15,-5,-9,21,-14,-5,-5,-15,-18
1.59111995410045e+15,4,-6,-19,-19,0,0,-7,-5
1.5911199541224e+15,-2,5,38,43,-11,-11,-2,-11
1.5911199541224e+15,-9,-4,-31,-30,16,16,11,6
1.59111995412318e+15,-46,-30,-21,-98,-17,-17,-9,-4
1.59111995412318e+15,9,15,-34,-3,32,32,36,11
1.59111995413872e+15,6,25,35,100,7,7,-14,3
1.59111995413872e+15,-18,-22,-18,-11,-34,-34,-27,-20
1.59111995413972e+15,18,11,46,49,-9,-9,-6,2
1.59111995413972e+15,16,5,0,-46,24,24,17,28
1.59111995416137e+15,-19,-15,-44,-31,-8,-8,13,-8
1.59111995416137e+15,0,-9,31,-3,-24,-24,-31,-19
1.59111995416237e+15,-28,-19,-78,-33,-5,-5,-8,-8
1.59111995416237e+15,65,29,39,29,23,23,6,19
1.59111995418223e+15,-68,-18,-31,-4,-13,-13,19,-5
1.59111995418223e+15,-21,-12,21,-41,3,3,-11,-14
1.59111995418223e+15,7,5,-13,-21,15,15,18,13
1.59111995418223e+15,-12,-1,3,5,7,7,-5,-12
1.59111995419718e+15,18,-1,-27,6,-1,-1,-34,-20
1.59111995419718e+15,25,19,-1,1,9,9,49,47
1.59111995419798e+15,-29,1,43,60,-18,-18,-24,-15
1.59111995419798e+15,7,2,-5,-7,10,10,13,-4
1.59111995422003e+15,-7,-23,-17,-57,-20,-20,-16,-19
1.59111995422003e+15,7,1,3,-4,4,4,-1,-7
1.59111995422003e+15,9,13,23,67,-5,-5,-8,-5
1.59111995422003e+15,-1,-11,-29,-28,-15,-15,-1,13
1.59111995424266e+15,-4,-4,6,-22,6,6,11,-23
1.59111995424266e+15,-34,-2,-25,28,8,8,-18,-7
1.59111995424266e+15,-67,-18,20,-33,-8,-8,-6,-17
1.59111995424266e+15,-7,21,36,89,3,3,2,0
1.59111995425723e+15,4,-3,-22,-11,-1,-1,2,4
1.59111995425723e+15,49,11,-25,-38,9,9,22,46
1.59111995425822e+15,12,-0,-2,27,-16,-16,-13,-13
1.59111995425822e+15,-6,-12,-28,-46,1,1,-5,1
1.59111995427968e+15,12,7,10,-10,9,9,-1,23
1.59111995427968e+15,-6,-4,19,-26,3,3,7,-28
1.59111995428068e+15,30,5,2,47,-26,-26,-25,11
1.59111995428068e+15,0,-13,-18,-36,-11,-11,-8,-12
1.59111995430178e+15,-18,1,16,7,4,4,-9,0
1.59111995430178e+15,-4,-1,6,9,3,3,-15,-15
1.59111995430278e+15,-5,-0,-28,-5,10,10,8,8
1.59111995430278e+15,-4,-0,7,11,-7,-7,1,-13
1.59111995431715e+15,2,2,14,-13,-2,-2,2,24
1.59111995431715e+15,8,-11,-9,-23,-9,-9,-26,-21
1.59111995431813e+15,-39,7,8,38,-2,-2,24,7
1.59111995431813e+15,-66,-27,7,-3,-25,-25,-42,-48
1.59111995434002e+15,12,17,-12,2,21,21,47,42
1.59111995434002e+15,17,-4,15,22,-15,-15,-36,-32
1.59111995434002e+15,24,3,-10,-31,16,16,17,15
1.59111995434002e+15,-50,-26,-30,-43,-9,-9,-24,-26
1.59111995436348e+15,-14,-4,-11,-10,4,4,11,0
1.59111995436348e+15,26,13,21,-12,9,9,10,31
1.59111995436348e+15,30,9,-4,22,11,11,-5,-9
1.59111995436348e+15,-10,-11,13,-5,-24,-24,-19,-18
1.59111995437772e+15,31,16,13,34,2,2,15,7
1.59111995437772e+15,14,26,7,35,24,24,41,36
1.59111995437772e+15,-63,-37,-23,-54,-39,-39,-25,-30
1.59111995437772e+15,30,6,15,36,-9,-9,-25,5
1.59111995439936e+15,-32,-9,-17,-25,9,9,18,-15
1.59111995439936e+15,4,-18,-31,-23,-22,-22,-41,-7
1.59111995440031e+15,-2,2,5,-21,16,16,13,0
1.59111995440031e+15,19,18,0,20,23,23,23,17
1.59111995442253e+15,9,-4,14,-1,-18,-18,-15,-3
1.59111995442253e+15,-18,8,-1,-17,17,17,35,17
1.59111995442253e+15,31,8,4,28,10,10,-15,-17
1.59111995442253e+15,2,-9,5,-15,-26,-26,-14,-3
1.59111995444598e+15,-3,-9,-28,-18,-16,-16,-1,20
1.59111995444598e+15,-10,-10,-5,-20,-2,-2,-1,-18
1.59111995444598e+15,-9,6,-16,10,7,7,9,13
1.59111995444598e+15,-7,4,29,14,4,4,-6,0
1.5911199544599e+15,16,3,1,3,-2,-2,-13,-13
1.5911199544599e+15,14,1,-8,14,-8,-8,-5,4
1.5911199544599e+15,-32,-5,16,-9,3,3,-5,-8
1.5911199544599e+15,43,14,4,27,-3,-3,21,17
1.59111995449004e+15,7,-2,0,-31,14,14,-17,-8
1.59111995449004e+15,-54,-11,-4,30,-19,-19,-10,-16
1.59111995449104e+15,36,4,33,12,-1,-1,-33,-17
1.59111995449104e+15,-26,-7,-49,-36,3,3,25,21
1.59111995449768e+15,29,19,3,26,21,21,17,17
1.59111995449768e+15,-24,-23,-3,-8,-23,-23,-39,-51
1.59111995449768e+15,15,20,24,14,-6,-6,50,60
1.59111995449768e+15,3,-1,11,-18,1,1,-5,-7
1.59111995452838e+15,8,-0,-9,10,2,2,-2,-9
1.59111995452838e+15,-38,-10,-43,-43,23,23,14,14
1.59111995452838e+15,52,22,30,24,-1,-1,33,14
1.59111995452838e+15,-7,5,-25,11,4,4,15,9
1.59111995454265e+15,-86,-41,-25,-42,-19,-19,-45,-67
1.59111995454265e+15,48,9,34,4,-19,-19,-3,18
1.59111995454265e+15,5,13,-32,-3,46,46,23,4
1.59111995454265e+15,62,-9,54,-26,-55,-55,-46,5
1.59111995455672e+15,-50,-0,54,54,-4,-4,-26,-46
1.59111995455672e+15,14,13,-16,40,14,14,17,-5
1.59111995456455e+15,-4,-8,-52,-47,12,12,11,17
1.59111995456455e+15,-21,-7,-2,-3,5,5,2,-24
1.59111995457945e+15,24,5,4,-3,-8,-8,10,12
1.59111995457945e+15,4,-10,20,-19,-23,-23,-42,10
1.59111995458045e+15,21,10,-7,-6,6,6,34,18
1.59111995458045e+15,13,9,6,30,20,20,-24,-12
1.59111995460233e+15,7,-6,-17,-13,-12,-12,0,15
1.59111995460233e+15,-3,31,23,37,37,37,48,28
1.59111995460233e+15,-65,-42,-18,-13,-44,-44,-68,-62
1.59111995460233e+15,-10,21,30,28,33,33,30,7
1.59111995461735e+15,-4,-10,-21,-28,-10,-10,0,17
1.59111995461735e+15,48,17,-2,8,7,7,35,17
1.59111995462519e+15,19,-6,4,-12,-20,-20,-24,6
1.59111995462519e+15,-91,-32,-22,4,-18,-18,-33,-52
1.59111995464036e+15,40,10,1,-18,9,9,8,14
1.59111995464036e+15,-38,-28,-26,-28,-17,-17,-46,-38
1.59111995464036e+15,42,3,6,-27,-4,-4,17,7
1.59111995464036e+15,37,15,-25,17,3,3,3,43
1.59111995466237e+15,-31,-0,8,-7,4,4,26,17
1.59111995466237e+15,-21,-9,-9,-10,-2,-2,5,-20
1.59111995466237e+15,17,30,8,31,44,44,41,21
1.59111995466237e+15,14,-20,-8,-27,-33,-33,-43,-24
1.59111995467708e+15,2,6,19,46,-12,-12,-19,-3
1.59111995467708e+15,-2,-5,-6,-26,-4,-4,4,8
1.59111995468524e+15,8,17,23,46,18,18,16,0
1.59111995468524e+15,-36,-16,-28,-24,4,4,-5,-18
1.59111995469954e+15,12,1,18,1,-11,-11,-8,2
1.59111995469954e+15,19,13,43,30,1,1,2,3
1.59111995470007e+15,3,-4,-34,-8,5,5,-6,-11
1.59111995470007e+15,-2,-1,-27,-30,11,11,20,10
1.59111995472221e+15,42,11,19,21,-7,-7,-10,6
1.59111995472221e+15,-8,5,9,28,6,6,0,-2
1.59111995472299e+15,-13,-23,-8,-44,-28,-28,-30,-12
1.59111995472299e+15,1,7,8,14,2,2,22,-3
1.59111995473775e+15,-66,-11,11,33,-18,-18,-2,-7
1.59111995473775e+15,-5,-21,-84,-76,6,6,3,-1
1.59111995474514e+15,-19,-7,3,-9,-10,-10,-4,-3
1.59111995474514e+15,40,23,36,19,24,24,17,13
1.59111995476843e+15,21,-5,-5,-14,-19,-19,-6,7
1.59111995476843e+15,-24,14,-2,76,10,10,-6,-15
1.59111995476843e+15,38,19,35,33,-6,-6,7,28
1.59111995476843e+15,-54,-26,-59,-34,1,1,-2,-33
1.59111995478238e+15,18,8,2,-3,12,12,15,9
1.59111995478238e+15,-32,-9,6,-44,2,2,20,-5
1.59111995478338e+15,42,-2,8,-17,-20,-20,-27,10
1.59111995478338e+15,-54,5,32,59,-4,-4,-1,-2
1.5911199547966e+15,-15,-1,-12,-18,17,17,14,-15
1.5911199547966e+15,13,22,26,34,15,15,34,26
1.59111995480528e+15,-2,-17,-16,-32,-19,-19,-22,-14
1.59111995480528e+15,49,-7,11,-42,-20,-20,-16,15
1.59111995482003e+15,8,9,-38,-19,29,29,29,18
1.59111995482003e+15,24,17,41,31,9,9,-2,5
1.59111995482003e+15,-62,-8,-7,12,-6,-6,5,-10
1.59111995482003e+15,13,7,-4,32,-1,-1,-2,2
1.59111995484977e+15,26,16,-3,-3,15,15,34,39
1.59111995484977e+15,-20,-18,13,-30,-11,-11,-29,-32
1.5911199548589e+15,-2,4,-15,20,-2,-2,7,17
1.5911199548589e+15,19,-9,-18,-29,-15,-15,-19,-9
1.59111995485991e+15,-19,13,25,16,28,28,22,3
1.59111995485991e+15,-27,-23,-2,-5,-34,-34,-53,-29
1.5911199548727e+15,-27,-12,7,-11,-8,-8,-14,-6
1.5911199548727e+15,12,19,19,25,13,13,20,22
1.59111995488004e+15,15,-2,-53,-23,12,12,1,-1
1.59111995488004e+15,18,16,12,44,0,0,10,17
1.59111995488084e+15,-22,-1,-17,-8,10,10,8,16
1.59111995488084e+15,-14,7,20,-1,5,5,6,43
1.59111995490336e+15,-16,-19,-4,-50,-21,-21,-22,-3
1.59111995490336e+15,64,25,-4,14,9,9,6,61
1.59111995490336e+15,-94,-19,-20,-8,-17,-17,-28,32
1.59111995490336e+15,-4,-8,-1,-27,-10,-10,-14,11
1.59111995492566e+15,-11,-0,15,11,1,1,0,-24
1.59111995492566e+15,5,-29,-47,-52,-22,-22,-20,-54
1.59111995492566e+15,-23,-1,23,3,20,20,11,-54
1.59111995492566e+15,21,1,-3,-30,9,9,26,-18
1.59111995494832e+15,5,13,55,98,-2,-2,-24,-59
1.59111995494832e+15,-80,-24,-56,-34,11,11,10,-48
1.59111995494832e+15,35,-5,-9,23,-24,-24,-26,-37
1.59111995494832e+15,-14,-5,-6,0,-18,-18,-22,48
1.59111995496235e+15,-18,1,5,-24,-5,-5,-1,66
1.59111995496235e+15,-8,12,0,-6,10,10,17,50
1.59111995496235e+15,-26,4,20,35,9,9,-2,-30
1.59111995496235e+15,32,-7,2,-14,-17,-17,-18,-34
1.59111995498558e+15,9,-2,-22,-4,14,14,16,-27
1.59111995498558e+15,59,16,26,-29,12,12,35,25
1.59111995498593e+15,1,-26,-22,-25,-30,-30,-48,-59
1.59111995498593e+15,-41,8,13,55,13,13,-4,-2
1.59111995499918e+15,88,9,-14,-14,7,7,-10,-2
1.59111995499918e+15,-120,-32,-10,-16,-7,-7,1,-61
1.59111995500032e+15,49,-13,-3,-7,-34,-34,-21,-39
1.59111995500032e+15,-28,-4,-20,-6,4,4,24,-16
1.59111995502158e+15,28,-9,14,8,-28,-28,-57,-36
1.59111995502158e+15,30,17,-3,6,6,6,34,39
1.59111995502923e+15,20,35,37,13,45,45,52,32
1.59111995502923e+15,-15,-18,-50,-29,-13,-13,-8,-9
1.59111995504531e+15,39,13,18,-3,1,1,19,12
1.59111995504531e+15,-20,-8,23,24,-12,-12,-16,-36
1.59111995504631e+15,-2,11,-3,-14,28,28,28,28
1.59111995504631e+15,-19,-11,-14,-30,3,3,-3,-24
1.59111995506002e+15,-43,-23,13,-25,-38,-38,-28,-15
1.59111995506002e+15,56,13,3,32,-4,-4,-21,10
1.59111995506002e+15,87,34,6,34,13,13,22,65
1.59111995506002e+15,52,26,2,26,35,35,35,-3
1.59111995508183e+15,-34,2,-34,-22,16,16,39,35
1.59111995508183e+15,6,-8,-15,-40,-5,-5,10,4
1.59111995508283e+15,-38,-25,1,10,-36,-36,-71,-39
1.59111995508283e+15,30,15,13,4,19,19,12,16
1.59111995510566e+15,-79,1,6,27,11,11,34,-7
1.59111995510566e+15,19,-25,-4,-2,-49,-49,-81,-32
1.59111995510566e+15,26,22,3,1,29,29,52,36
1.59111995510566e+15,-64,-23,-7,-9,-27,-27,-23,-12
1.59111995512006e+15,-46,-19,-20,-73,10,10,17,-8
1.59111995512006e+15,47,34,32,52,29,29,23,25
1.59111995512006e+15,-19,-9,-7,-3,-6,-6,-24,-16
1.59111995512006e+15,28,-4,18,27,-28,-28,-49,-29
1.59111995514245e+15,80,27,10,21,12,12,34,23
1.59111995514245e+15,-69,-29,-6,8,-26,-26,-41,-57
1.59111995514245e+15,92,4,-14,-36,-17,-17,-9,26
1.59111995514245e+15,-91,-10,11,-7,15,15,28,-19
1.59111995516504e+15,69,2,-3,1,-14,-14,-42,-6
1.59111995516504e+15,-73,-9,16,-11,11,11,14,-17
1.59111995516603e+15,47,23,-11,3,28,28,35,32
1.59111995516603e+15,10,2,3,-24,-8,-8,18,28
1.59111995518791e+15,-67,-24,-3,26,-27,-27,-46,-44
1.59111995518791e+15,54,19,7,12,17,17,14,19
1.59111995518892e+15,-110,-30,-23,9,-24,-24,-34,-27
1.59111995518892e+15,127,16,12,6,-14,-14,-39,20
1.59111995521076e+15,-32,-8,-20,-8,-5,-5,7,18
1.59111995521076e+15,-12,1,16,-14,-1,-1,-3,22
1.59111995521141e+15,56,26,3,-10,34,34,44,27
1.59111995521141e+15,-69,-13,-3,27,-9,-9,-11,-27
1.59111995523258e+15,38,17,10,34,1,1,-2,15
1.59111995523258e+15,55,5,-18,-13,2,2,2,7
1.59111995523357e+15,-62,-0,19,24,11,11,25,-2
1.59111995523357e+15,-39,-36,-67,-62,-29,-29,-25,-32
1.59111995523987e+15,20,2,7,-13,-8,-8,11,20
1.59111995523987e+15,-30,9,-26,2,24,24,45,26
1.59111995523987e+15,9,-20,32,4,-40,-40,-68,-46
1.59111995523987e+15,7,16,37,26,7,7,9,24
1.59111995527064e+15,-44,-5,-37,-12,17,17,10,6
1.59111995527064e+15,97,19,16,-6,2,2,-11,12
1.59111995527064e+15,6,-3,-31,-21,-14,-14,12,36
1.59111995527064e+15,-3,4,33,9,10,10,-13,-6
1.5911199552856e+15,-15,18,43,46,17,17,12,15
1.5911199552856e+15,7,16,-9,-4,30,30,10,29
1.59111995528694e+15,-38,-13,6,24,-43,-43,-39,15
1.59111995528694e+15,52,21,-13,-11,11,11,19,81
1.59111995529903e+15,23,-6,4,-8,-30,-30,-30,27
1.59111995529903e+15,52,30,1,6,25,25,43,66
1.59111995530772e+15,-113,-28,-3,-4,-17,-17,-55,-13
1.59111995530772e+15,-16,-2,-22,-18,4,4,11,22
1.59111995532255e+15,-7,-8,-8,-6,-2,-2,-28,-29
1.59111995532255e+15,68,34,35,52,31,31,40,-14
1.59111995532296e+15,-13,-60,-46,-99,-53,-53,-65,-117
1.59111995532296e+15,-3,11,17,18,20,20,40,-45
1.59111995534588e+15,28,1,-7,-2,-4,-4,-6,-13
1.59111995534588e+15,-59,-32,-36,-21,-27,-27,-26,-40
1.59111995534588e+15,42,26,24,9,26,26,51,25
1.59111995534588e+15,-17,-6,14,10,6,6,2,-45
1.59111995535999e+15,-22,-6,0,-25,2,2,8,-27
1.59111995535999e+15,-50,1,59,38,-18,-18,0,-22
1.59111995535999e+15,6,6,6,-22,31,31,22,-18
1.59111995535999e+15,38,1,-5,57,-23,-23,-19,-39
1.59111995538251e+15,-70,-32,-39,-82,-1,-1,-1,-40
1.59111995538251e+15,25,9,18,32,-9,-9,-1,-1
1.59111995538353e+15,-31,-1,12,42,2,2,6,-12
1.59111995538353e+15,28,4,-57,-106,39,39,49,43
1.59111995540591e+15,9,-12,22,27,-29,-29,-48,-54
1.59111995540591e+15,-38,-22,-69,-19,-28,-28,-7,9
1.59111995540623e+15,23,22,6,35,23,23,30,9
1.59111995540623e+15,33,19,29,18,13,13,4,27
1.59111995541998e+15,-66,-16,18,42,-24,-24,-34,-19
1.59111995541998e+15,21,-33,-57,-124,-29,-29,-24,-11
1.59111995542784e+15,-23,-8,-7,-22,0,0,-7,5
1.59111995542784e+15,-55,-2,11,32,-6,-6,-3,12
1.59111995544224e+15,29,12,1,-2,15,15,18,7
1.59111995544224e+15,17,14,35,46,4,4,-8,16
1.5911199554493e+15,34,11,12,12,1,1,12,13
1.5911199554493e+15,-6,1,6,-20,-2,-2,9,16
1.59111995546492e+15,4,13,-2,58,3,3,6,16
1.59111995546492e+15,-56,-4,-29,-8,14,14,27,16
1.59111995546593e+15,64,-2,-33,-68,6,6,1,12
1.59111995546593e+15,-1,-12,19,5,-15,-15,-46,-29
1.5911199554792e+15,4,19,10,27,25,25,44,23
1.5911199554792e+15,-34,-16,14,5,-27,-27,-17,-25
1.59111995549527e+15,33,4,-10,2,-9,-9,4,9
1.59111995549527e+15,-19,6,20,32,-3,-3,8,4
1.59111995550248e+15,6,-16,-39,-91,0,0,11,3
1.59111995550248e+15,-24,-8,0,9,-7,-7,-14,-13
1.59111995550983e+15,-31,11,18,-8,25,25,41,24
1.59111995550983e+15,38,-18,-5,-4,-40,-40,-56,-21
1.59111995552593e+15,27,-2,-2,-11,-8,-8,-10,12
1.59111995552593e+15,2,19,25,49,27,27,16,2
1.59111995552593e+15,26,-5,-11,-1,6,6,-14,-42
1.59111995552593e+15,-12,-7,-22,-31,15,15,26,-17
1.59111995554821e+15,-13,-8,16,13,-7,-7,-27,-33
1.59111995554821e+15,42,5,2,5,-11,-11,-27,22
1.59111995554821e+15,1,22,16,23,23,23,34,36
1.59111995554821e+15,-20,1,-8,19,-4,-4,-8,8
1.59111995556248e+15,-1,7,-19,-24,7,7,22,32
1.59111995556248e+15,1,-23,-13,-17,-38,-38,-49,-32
1.59111995556248e+15,1,1,12,-17,-1,-1,-6,17
1.59111995556248e+15,16,12,-15,14,9,9,31,13
1.59111995558596e+15,18,-0,27,3,-9,-9,-21,-7
1.59111995558596e+15,-23,-9,-54,-16,7,7,7,-7
1.59111995558596e+15,22,11,-4,-1,4,4,28,20
1.59111995558596e+15,9,-9,5,-15,-7,-7,-33,-9
1.59111995559909e+15,19,13,3,9,14,14,3,27
1.59111995559909e+15,-29,-18,-7,-36,-3,-3,-20,-17
1.59111995560701e+15,-64,2,33,48,10,10,1,-21
1.59111995560701e+15,1,-12,-37,-35,-7,-7,-19,-17
1.59111995562248e+15,-44,-15,-5,-9,-19,-19,-6,-8
1.59111995562248e+15,-1,14,1,17,26,26,25,10
1.59111995562248e+15,-11,-13,-10,0,-18,-18,-44,-16
1.59111995562248e+15,20,13,30,14,11,11,17,19
1.59111995564456e+15,27,9,-8,2,6,6,19,19
1.59111995564456e+15,12,-16,11,-36,-14,-14,-26,-35
1.59111995565239e+15,21,15,-16,3,17,17,33,36
1.59111995565239e+15,-91,-17,10,17,-8,-8,-9,-43
1.59111995565851e+15,45,-2,-9,-16,-22,-22,-16,7
1.59111995565851e+15,17,14,18,21,10,10,11,15
1.59111995566757e+15,-10,1,-8,-6,1,1,16,-6
1.59111995566757e+15,22,10,14,14,-2,-2,5,15
1.5911199556824e+15,5,-3,0,2,-6,-6,-6,-13
1.5911199556824e+15,7,10,18,-9,21,21,8,4
1.5911199556824e+15,-21,-4,-7,16,-5,-5,-14,-19
1.5911199556824e+15,51,22,-5,-3,17,17,43,42
1.59111995570617e+15,-53,-37,-13,-2,-35,-35,-64,-77
1.59111995570617e+15,-16,-13,1,-10,-18,-18,-34,15
1.5911199557069e+15,40,3,-1,-7,-7,-7,4,-1
1.5911199557069e+15,-37,11,3,2,35,35,38,12
1.59111995572746e+15,8,1,-2,-18,3,3,7,9
1.59111995572746e+15,-16,-9,-8,8,-20,-20,7,-16
1.59111995572841e+15,6,-13,-27,-34,-11,-11,-15,-11
1.59111995572841e+15,13,-0,5,12,-11,-11,-13,3
1.59111995574314e+15,-19,27,9,16,54,54,55,37
1.59111995574314e+15,-34,-37,-14,-23,-57,-57,-56,-37
1.59111995574314e+15,13,4,2,6,-2,-2,-4,15
1.59111995574314e+15,43,21,9,16,20,20,23,9
1.59111995576562e+15,30,17,12,20,15,15,26,11
1.59111995576562e+15,-4,-18,-27,-9,-43,-43,-52,16
1.59111995576562e+15,-75,-31,-20,-19,-13,-13,-24,-59
1.59111995576562e+15,31,8,0,-17,0,0,16,23
1.59111995577938e+15,-19,-5,-1,3,-7,-7,-7,-6
1.59111995577938e+15,14,8,1,0,13,13,2,9
1.59111995578736e+15,-2,-2,6,0,-9,-9,-3,8
1.59111995578736e+15,-11,-2,16,30,-3,-3,-33,-19
1.59111995580234e+15,-17,-14,-49,-31,-12,-12,16,3
1.59111995580234e+15,13,10,14,4,16,16,15,-7
1.59111995580234e+15,-4,2,-1,10,9,9,-4,-7
1.59111995580234e+15,-29,-23,-6,-15,-36,-36,-38,-10
1.59111995583236e+15,-1,10,-10,-1,13,13,29,20
1.59111995583236e+15,28,25,32,16,32,32,37,9
1.59111995583336e+15,3,-9,-24,0,-25,-25,-10,3
1.59111995583336e+15,32,14,4,5,17,17,3,20
1.59111995584821e+15,-7,-15,-10,-24,-16,-16,-16,-17
1.59111995584821e+15,7,6,3,-7,2,2,19,20
1.59111995584821e+15,-26,-0,21,10,10,10,-3,-13
1.59111995584821e+15,-55,-26,-26,-19,-20,-20,-19,-28
1.5911199558627e+15,28,11,23,12,3,3,-4,13
1.5911199558627e+15,7,9,8,10,18,18,10,-20
1.5911199558627e+15,-9,-4,2,10,-22,-22,-6,6
1.5911199558627e+15,5,-8,-47,-20,-2,-2,-2,-13
1.59111995588592e+15,8,10,12,15,18,18,5,0
1.59111995588592e+15,-18,-3,9,1,6,6,17,-39
1.59111995588592e+15,11,6,9,3,0,0,0,22
1.59111995588592e+15,-5,-2,11,-6,0,0,-2,-11
1.59111995591486e+15,32,12,-7,10,14,14,15,6
1.59111995591486e+15,-20,-7,-19,4,-4,-4,-10,-13
1.59111995591587e+15,-21,-22,-24,-38,-13,-13,-24,-28
1.59111995591587e+15,19,4,0,-6,-5,-5,5,17
1.59111995592243e+15,-69,-21,8,-5,-6,-6,-20,-55
1.59111995592243e+15,31,15,12,1,2,2,31,40
1.59111995592335e+15,-15,6,-17,23,21,21,14,-19
1.59111995592335e+15,21,-2,-3,6,-15,-15,-8,-2
1.59111995594601e+15,5,-9,-8,-14,-15,-15,-32,-3
1.59111995594601e+15,-21,-10,-5,-13,-12,-12,-15,4
1.59111995594601e+15,11,18,25,15,14,14,34,25
1.59111995594601e+15,-23,-11,-4,-25,-8,-8,-15,-7
1.59111995596798e+15,25,24,9,14,24,24,37,35
1.59111995596798e+15,-9,-17,-3,9,-27,-27,-64,-22
1.59111995596898e+15,-9,7,6,13,14,14,4,3
1.59111995596898e+15,-35,-12,-6,-6,-14,-14,21,-28
1.59111995598255e+15,-6,-0,-3,-11,1,1,5,12
1.59111995598255e+15,20,2,1,-4,-4,-4,-4,6
1.59111995598255e+15,29,4,-15,-14,2,2,-5,20
1.59111995598255e+15,-4,-6,15,16,1,1,-36,-39
1.59111995600593e+15,-7,-6,-16,-8,-29,-29,6,36
1.59111995600593e+15,20,19,2,-4,23,23,61,25
1.59111995600593e+15,26,-8,17,2,-19,-19,-53,-26
1.59111995600593e+15,-19,9,-1,9,5,5,37,28
1.59111995602846e+15,2,-4,-6,-13,3,3,-9,-17
1.59111995602846e+15,-33,-23,-13,0,-21,-21,-51,-27
1.59111995602846e+15,9,4,21,-1,-5,-5,10,11
1.59111995602846e+15,-30,-9,-9,-7,2,2,-4,-19
1.59111995604255e+15,52,26,15,13,27,27,28,27
1.59111995604255e+15,19,8,-3,-9,8,8,22,21
1.59111995604305e+15,-63,-19,4,30,-14,-14,-36,-56
1.59111995604305e+15,45,4,-16,-14,-1,-1,-10,17
1.59111995606482e+15,-14,-15,-10,-4,-18,-18,-27,-26
1.59111995606482e+15,33,27,12,23,31,31,33,26
1.59111995606582e+15,18,-19,-14,-37,-40,-40,-27,3
1.59111995606582e+15,-28,4,5,21,8,8,4,6
1.59111995608854e+15,-56,-21,-8,-14,-21,-21,-28,-19
1.59111995608854e+15,-12,8,11,10,17,17,23,-12
1.59111995608854e+15,35,18,-1,4,14,14,24,33
1.59111995608854e+15,18,5,3,-4,2,2,7,8
1.59111995610236e+15,30,-1,-4,-17,0,0,-6,-13
1.59111995610236e+15,-41,-8,5,-4,-3,-3,-8,1
1.59111995610236e+15,17,17,-3,26,25,25,20,0
1.59111995610236e+15,23,-6,-9,-29,-18,-18,2,8
1.59111995612521e+15,-1,-6,7,22,-3,-3,-36,-36
1.59111995612521e+15,50,25,-1,7,17,17,33,41
1.59111995612615e+15,-41,10,2,-2,25,25,46,13
1.59111995612615e+15,-29,-33,-19,-21,-49,-49,-49,-21
1.59111995615591e+15,-21,-0,-3,1,9,9,3,2
1.59111995615591e+15,-10,-8,-12,1,-18,-18,3,-5
1.59111995615632e+15,20,-1,8,-28,-2,-2,-6,6
1.59111995615632e+15,-36,7,20,35,16,16,-7,-7
1.59111995616271e+15,8,3,-10,-2,3,3,10,1
1.59111995616271e+15,6,-8,-16,-13,-10,-10,-3,-6
1.59111995616271e+15,-17,-11,-4,2,-2,-2,-39,-20
1.59111995616271e+15,16,9,5,-18,13,13,26,15
1.59111995618541e+15,-7,-9,-2,18,-27,-27,-22,-17
1.59111995618541e+15,26,4,-2,-3,5,5,-3,0
1.59111995618643e+15,-30,-0,5,0,4,4,20,-5
1.59111995618643e+15,-26,-20,-5,-10,-14,-14,-40,-35
1.59111995620838e+15,21,15,18,10,31,31,11,-10
1.59111995620838e+15,27,7,-12,-3,-12,-12,11,40
1.59111995620838e+15,1,-6,-1,-3,-13,-13,2,-7
1.59111995620838e+15,20,9,1,-17,16,16,16,11
1.5911199562224e+15,9,-5,-1,14,-11,-11,-38,-15
1.5911199562224e+15,-24,-15,-9,-6,-8,-8,-35,-24
1.59111995622321e+15,-10,8,7,15,22,22,-8,9
1.59111995622321e+15,3,-4,-20,-16,-24,-24,33,8
1.59111995624655e+15,15,9,5,-4,13,13,32,4
1.59111995624655e+15,0,4,5,1,13,13,-1,-4
1.59111995624783e+15,-13,-6,2,9,-10,-10,-14,-18
1.59111995624783e+15,27,2,-12,-10,1,1,-19,24
1.59111995626791e+15,-22,-6,1,1,-14,-14,-7,4
1.59111995626791e+15,-27,-5,-5,-4,6,6,24,-37
1.5911199562689e+15,35,-2,-3,-11,7,7,-51,-3
1.5911199562689e+15,-13,13,4,10,1,1,68,19
1.59111995628235e+15,-13,-0,10,-2,9,9,-8,-8
1.59111995628235e+15,-5,-9,-11,-13,-15,-15,-19,9
1.59111995628992e+15,22,11,-2,-4,9,9,5,43
1.59111995628992e+15,-40,-23,-8,-1,-20,-20,-33,-46
1.59111995630559e+15,-24,16,22,11,19,19,64,0
1.59111995630559e+15,0,-16,-30,-21,-28,-28,-22,5
1.59111995630631e+15,-4,-2,-2,-6,-1,-1,16,-19
1.59111995630631e+15,48,23,11,11,17,17,22,40
1.59111995632903e+15,-11,-6,-8,-7,-18,-18,6,9
1.59111995632903e+15,-18,-13,11,-5,1,1,-46,-41
1.59111995632903e+15,-13,10,-8,-1,7,7,62,16
1.59111995632903e+15,-8,-9,-6,-3,-14,-14,-5,-27
1.59111995634287e+15,30,4,-6,-3,1,1,-37,43
1.59111995634287e+15,-4,9,-3,-1,8,8,32,26
1.59111995635768e+15,3,-4,1,0,-6,-6,-9,-29
1.59111995635768e+15,0,8,14,8,21,21,2,-10
1.59111995636479e+15,5,5,2,0,5,5,2,15
1.59111995636479e+15,8,-20,-6,-13,-51,-51,-49,9
1.59111995636579e+15,-37,-10,-2,0,-1,-1,-6,-27
1.59111995636579e+15,8,12,12,15,23,23,-7,15
1.59111995638782e+15,27,-6,-16,-11,-12,-12,-3,-13
1.59111995638782e+15,-35,11,19,11,25,25,22,12
1.59111995638883e+15,1,-11,-25,-26,-8,-8,-3,-11
1.59111995638883e+15,21,11,15,14,11,11,-1,6
1.59111995640217e+15,-52,-17,-8,-6,-10,-10,-30,-17
1.59111995640217e+15,-5,9,-1,5,3,3,43,16
1.59111995640302e+15,38,15,16,16,12,12,-18,29
1.59111995640302e+15,21,-11,-17,-18,-35,-35,-26,26
1.59111995643242e+15,-46,-19,1,-7,-15,-15,-22,-29
1.59111995643242e+15,-25,12,1,6,27,27,37,19
1.59111995643337e+15,15,10,8,11,3,3,19,10
1.59111995643337e+15,4,4,-21,6,13,13,-5,13
1.59111995645523e+15,23,-6,6,-2,-17,-17,-21,-21
1.59111995645523e+15,6,-6,-9,-24,-9,-9,-4,-4
1.59111995645596e+15,-26,8,2,17,15,15,14,13
1.59111995645596e+15,18,12,14,15,16,16,16,-19
1.59111995646135e+15,14,-11,-18,1,-23,-23,-26,-8
1.59111995646135e+15,-2,9,12,10,27,27,-1,-2
1.59111995646974e+15,12,-10,-10,-31,-25,-25,10,3
1.59111995646974e+15,-46,-16,-3,-7,-14,-14,-19,-18
1.5911199564934e+15,27,15,1,2,7,7,33,19
1.5911199564934e+15,-23,-16,3,13,-19,-19,-34,-49
1.5911199564934e+15,35,2,-12,-14,-5,-5,-2,11
1.5911199564934e+15,-37,-9,10,1,-8,-8,-11,-11
1.59111995650818e+15,10,17,-15,-18,30,30,50,44
1.59111995650818e+15,11,4,16,26,1,1,-17,-16
1.59111995650818e+15,-10,-10,-5,-7,-24,-24,-2,-8
1.59111995650818e+15,-11,4,2,32,12,12,1,-22
1.59111995652176e+15,-15,-7,2,-18,0,0,-17,-14
1.59111995652176e+15,2,10,-4,-3,10,10,31,21
1.59111995653785e+15,31,-9,8,17,-22,-22,-59,-23
1.59111995653785e+15,-12,-6,-15,-29,8,8,11,-8
1.59111995654398e+15,11,11,15,11,1,1,38,18
1.59111995654398e+15,20,-5,-26,-30,5,5,-19,-9
1.59111995655843e+15,37,13,-1,-15,21,21,28,7
1.59111995655843e+15,-18,-10,-3,1,-31,-31,6,-10
1.59111995656844e+15,-20,-31,-6,1,-33,-33,-98,-51
1.59111995656844e+15,-97,-17,-2,-7,3,3,-6,-12
1.59111995656945e+15,24,16,8,20,1,1,34,19
1.59111995656945e+15,6,8,5,-8,20,20,10,4
1.59111995658141e+15,-8,-9,-6,-1,-15,-15,-14,-12
1.59111995658141e+15,51,12,7,12,3,3,0,17
1.59111995659079e+15,-31,-17,-22,-36,-4,-4,-9,-19
1.59111995659079e+15,34,13,13,-13,6,6,22,21
1.59111995660458e+15,-12,8,6,33,7,7,-2,1
1.59111995660458e+15,32,13,9,31,8,8,-11,-1
1.59111995662799e+15,-2,-13,-15,-15,-16,-16,-23,-9
1.59111995662799e+15,10,4,-4,-11,-1,-1,36,11
1.59111995662899e+15,-13,-4,-8,-5,-6,-6,-8,4
1.59111995662899e+15,-28,-10,3,-9,-7,-7,-1,-25
1.59111995663098e+15,-15,-5,-1,-4,-1,-1,-18,4
1.59111995663098e+15,33,5,7,14,4,4,-20,-5
1.59111995664199e+15,-10,17,1,1,14,14,63,40
1.59111995664199e+15,12,-15,-10,-16,-25,-25,-33,-15
1.59111995666573e+15,10,11,13,12,17,17,17,-9
1.59111995666573e+15,57,12,-4,-9,-11,-11,11,46
1.59111995666672e+15,-76,-12,-3,8,-3,-3,5,-9
1.59111995666672e+15,-34,-12,4,-3,-1,-1,-7,-43
1.59111995667258e+15,15,12,0,-1,7,7,25,29
1.59111995667258e+15,-14,-3,2,8,-4,-4,-10,-4
1.59111995668851e+15,4,4,18,1,9,9,7,-7
1.59111995668851e+15,5,-1,-10,13,-1,-1,-20,-3
1.59111995668951e+15,3,-5,-13,-5,-21,-21,-3,4
1.59111995668951e+15,70,12,2,13,10,10,-23,-6
1.59111995671075e+15,-72,-15,-2,-18,6,6,-9,-8
1.59111995671075e+15,12,-2,4,-19,-1,-1,7,-18
1.59111995671141e+15,27,8,9,33,-25,-25,-18,32
1.59111995671141e+15,25,10,0,2,15,15,9,0
1.59111995672417e+15,-44,-27,-26,-26,-13,-13,-25,-52
1.59111995672417e+15,17,23,-1,-4,29,29,50,57
1.59111995673274e+15,-12,-11,-2,-15,-12,-12,-10,-18
1.59111995673274e+15,31,7,21,14,-4,-4,-37,3
1.59111995674797e+15,96,18,-6,10,-5,-5,20,20
1.59111995674797e+15,0,-5,4,-4,-9,-9,-19,-9
1.59111995674997e+15,-50,-8,-11,-14,7,7,11,5
1.59111995674997e+15,-95,-22,-4,3,-12,-12,-15,-19
1.5911199567713e+15,19,13,6,3,9,9,30,20
1.5911199567713e+15,63,7,5,-24,-9,-9,7,18
1.59111995677208e+15,-2,9,11,41,8,8,-5,-7
1.59111995677208e+15,33,21,5,17,15,15,35,22
1.59111995678436e+15,45,-6,-12,-8,-17,-17,-41,-14
1.59111995678436e+15,-95,-3,-4,6,16,16,29,14
1.5911199567992e+15,37,-17,-7,-24,-30,-30,-47,-26
1.5911199567992e+15,-86,-20,-10,-12,-9,-9,5,-22
1.59111995680839e+15,13,4,5,-5,-3,-3,1,8
1.59111995680839e+15,51,10,4,-5,3,3,8,9
1.5911199568094e+15,-21,-4,-2,-1,13,13,-13,-9
1.5911199568094e+15,53,17,5,5,19,19,11,14
1.59111995683081e+15,37,11,13,5,12,12,12,-10
1.59111995683081e+15,-13,-15,-17,-2,-31,-31,-28,-1
1.59111995683237e+15,-10,10,11,19,8,8,16,16
1.59111995683237e+15,-96,-25,-29,-15,-5,-5,-17,-21
1.59111995684462e+15,21,-6,0,-4,-19,-19,-20,-8
1.59111995684462e+15,-54,-15,-12,-21,1,1,4,-14
1.59111995685337e+15,41,9,6,-10,12,12,11,-2
1.59111995685337e+15,13,-8,-8,-14,-17,-17,-19,-5
1.59111995686836e+15,-6,7,-12,-2,9,9,25,24
1.59111995686836e+15,20,5,7,13,4,4,-18,-10
1.5911199568694e+15,-54,-18,-5,6,-18,-18,-24,-17
1.5911199568694e+15,-41,-10,2,-16,-1,-1,10,-22
1.59111995689006e+15,29,8,-6,-4,3,3,6,19
1.59111995689006e+15,69,13,11,8,-1,-1,-2,7
1.59111995689206e+15,-37,3,4,-6,14,14,21,3
1.59111995689206e+15,-33,-21,-11,-18,-27,-27,-18,-13
1.5911199569046e+15,-16,-14,-5,-12,-11,-11,-29,-24
1.5911199569046e+15,3,7,2,8,1,1,21,9
1.59111995691281e+15,-24,-5,-9,-2,6,6,-7,-11
1.59111995691281e+15,39,10,4,13,3,3,-8,6
1.59111995692823e+15,16,10,9,-5,3,3,25,23
1.59111995692823e+15,-26,-7,8,16,2,2,-41,-21
1.59111995692924e+15,55,-1,-12,-31,-16,-16,4,-3
1.59111995692924e+15,-15,2,-8,-3,3,3,12,18
1.59111995695005e+15,-13,1,9,9,4,4,-1,-15
1.59111995695005e+15,24,-4,0,-2,-17,-17,-13,-6
1.5911199569521e+15,-69,-12,-1,10,1,1,-3,-22
1.5911199569521e+15,15,12,5,-5,18,18,26,19
1.59111995697237e+15,21,11,19,14,13,13,2,-1
1.59111995697237e+15,-5,-8,-20,-11,-8,-8,-2,-5
1.59111995697437e+15,-24,-0,10,-1,9,9,4,-7
1.59111995697437e+15,20,1,-9,-3,-3,-3,-9,8
1.59111995698767e+15,13,4,5,14,6,6,-21,-1
1.59111995698767e+15,-24,-0,3,5,-7,-7,23,-8
1.59111995698891e+15,14,7,-2,-5,4,4,13,16
1.59111995698891e+15,-6,-16,-1,-5,-22,-22,-43,-25
1.59111995701066e+15,0,-9,-14,-11,-12,-12,-13,-4
1.59111995701066e+15,-4,2,6,-1,-1,-1,2,7
1.59111995701141e+15,39,15,3,8,20,20,12,4
1.59111995701141e+15,-13,-2,-4,-6,-3,-3,18,6
1.5911199570254e+15,-23,-8,-6,-10,-10,-10,-3,-8
1.5911199570254e+15,36,11,3,2,18,18,2,15
1.59111995703138e+15,4,-12,-7,-1,-22,-22,-40,-22
1.59111995703138e+15,12,1,4,-5,-3,-3,3,-1
1.5911199570478e+15,12,7,12,16,11,11,10,-24
1.5911199570478e+15,-8,9,-14,-3,15,15,35,34
1.59111995704976e+15,7,-10,0,-12,-23,-23,-28,-11
1.59111995704976e+15,-44,-0,0,17,16,16,7,-15
1.5911199570701e+15,-20,-9,-10,-18,-4,-4,0,-4
1.5911199570701e+15,-6,8,8,13,9,9,24,7
1.59111995707211e+15,7,-13,-18,-22,-24,-24,-17,-4
1.59111995707211e+15,12,10,8,9,16,16,-8,-7
1.5911199570939e+15,8,7,9,23,4,4,-14,4
1.5911199570939e+15,-35,-22,-21,-14,-37,-37,-8,-12
1.59111995709491e+15,41,24,19,26,10,10,33,43
1.59111995709491e+15,-81,-20,-8,-5,6,6,-24,-51
1.59111995710853e+15,19,-1,-18,-23,-16,-16,10,30
1.59111995710853e+15,46,12,9,9,8,8,-15,5
1.59111995711565e+15,-2,6,9,1,9,9,10,6
1.59111995711565e+15,-5,-5,-16,-16,5,5,3,2
1.59111995713027e+15,10,9,8,12,2,2,24,3
1.59111995713027e+15,-25,-10,-6,2,-7,-7,-19,-26
1.59111995713227e+15,-24,-7,-7,-10,-4,-4,16,1
1.59111995713227e+15,63,18,15,6,-2,-2,5,35
1.59111995715288e+15,-4,-11,-4,-5,-7,-7,-37,-19
1.59111995715288e+15,-66,-20,-17,-27,-6,-6,24,-34
1.59111995715462e+15,-25,-6,-5,16,-19,-19,-10,1
1.59111995715462e+15,27,-0,-12,-26,11,11,1,-7
1.59111995716836e+15,91,26,5,-3,18,18,24,46
1.59111995716836e+15,-11,-1,1,4,3,3,10,-26
1.59111995716975e+15,-23,-1,-3,-4,12,12,-11,5
1.59111995716975e+15,-2,-9,1,8,-32,-32,-20,-6
1.59111995719039e+15,0,-3,-3,-6,-7,-7,-3,-5
1.59111995719039e+15,-27,20,3,9,53,53,38,23
1.59111995719717e+15,-24,-27,-24,-27,-44,-44,-23,-15
1.59111995719717e+15,68,19,20,17,0,0,7,14
1.59111995720455e+15,-38,-7,-7,-20,1,1,8,-4
1.59111995720455e+15,35,2,32,23,-9,-9,-37,-16
1.59111995721185e+15,30,15,-5,15,6,6,14,12
1.59111995721185e+15,-38,-16,-16,-3,-17,-17,-11,-15
1.59111995722846e+15,-38,7,2,10,18,18,20,20
1.59111995722846e+15,17,12,3,-3,10,10,30,19
1.59111995723492e+15,19,-7,-1,-17,-2,-2,-24,-27
1.59111995723492e+15,-53,-15,-7,-8,-6,-6,-15,-21
1.59111995725059e+15,-46,-12,-5,-4,-14,-14,8,-10
1.59111995725059e+15,57,2,-3,-10,-12,-12,-33,11
1.59111995725158e+15,46,26,14,32,49,49,22,6
1.59111995725158e+15,91,19,15,0,-2,-2,-1,31
1.59111995726414e+15,-71,-11,-10,-4,6,6,8,-13
1.59111995726414e+15,-79,-26,-21,-15,-20,-20,-24,-26
1.59111995727275e+15,81,10,1,-2,-13,-13,-4,12
1.59111995727275e+15,25,17,9,-8,26,26,35,16
1.59111995728849e+15,-11,-11,-7,7,-28,-28,-22,1
1.59111995728849e+15,-2,-7,4,11,-11,-11,-28,-18
1.5911199572895e+15,-19,16,11,-5,27,27,48,29
1.5911199572895e+15,-35,-13,-4,-13,-8,-8,-16,-4
1.5911199573105e+15,-28,-1,6,19,5,5,0,-13
1.5911199573105e+15,58,9,11,-6,-3,-3,-12,7
1.59111995731678e+15,-92,-16,-9,-13,2,2,1,-19
1.59111995731678e+15,84,13,2,6,-14,-14,-13,20
1.59111995732394e+15,11,1,-17,-17,14,14,4,-3
1.59111995732394e+15,46,9,9,5,-7,-7,-6,13
1.59111995733238e+15,17,12,6,10,0,0,24,26
1.59111995733238e+15,-46,-11,-6,0,-2,-2,9,-23
1.59111995734859e+15,65,12,3,-11,12,12,0,7
1.59111995734859e+15,-83,-37,-11,-23,-28,-28,-48,-40
1.59111995734958e+15,80,24,-2,-3,16,16,23,40
1.59111995734958e+15,-36,-14,-7,21,-14,-14,-19,-43
1.59111995737845e+15,50,21,-1,14,18,18,34,17
1.59111995737845e+15,34,4,6,-18,-13,-13,1,18
1.59111995737907e+15,-96,-22,-1,-5,-3,-3,-14,-38
1.59111995737907e+15,10,6,-2,4,9,9,9,13
1.5911199573841e+15,-50,-18,2,-13,-21,-21,-14,-18
1.5911199573841e+15,-1,-5,-5,2,-8,-8,-14,-12
1.59111995739274e+15,25,-6,-3,-20,-6,-6,-13,-18
1.59111995739274e+15,22,6,-22,-6,3,3,13,28
1.59111995740824e+15,8,19,31,32,20,20,-4,24
1.59111995740824e+15,-17,-9,-31,-3,-7,-7,31,-26
1.59111995740924e+15,14,-11,7,-17,-22,-22,-38,-17
1.59111995740924e+15,-88,3,9,14,27,27,43,-2
1.59111995743034e+15,72,21,7,19,9,9,-3,25
1.59111995743034e+15,-8,-18,-14,-5,-38,-38,-21,-17
1.59111995743134e+15,13,-8,-8,-3,-18,-18,-31,-8
1.59111995743134e+15,41,11,12,-9,13,13,12,13
1.5911199574446e+15,-24,-4,-9,-13,6,6,11,-2
1.5911199574446e+15,-12,-4,-1,-5,3,3,-9,0
1.59111995745258e+15,-23,-1,-3,-6,-4,-4,17,8
1.59111995745258e+15,-69,-24,-7,4,-30,-30,-29,-31
1.59111995746849e+15,85,11,8,-3,-5,-5,-13,-8
1.59111995746849e+15,-11,25,0,17,35,35,64,50
1.5911199574695e+15,14,-12,-6,-4,-6,-6,-52,-23
1.5911199574695e+15,1,2,3,8,-12,-12,12,6
1.59111995749852e+15,15,5,5,-16,10,10,16,7
1.59111995749852e+15,-25,-7,-4,-7,6,6,14,-31
1.59111995749947e+15,-6,-14,-19,4,-18,-18,-48,-16
1.59111995749947e+15,73,9,1,-4,7,7,-9,-13
1.59111995750448e+15,-7,-24,-15,-7,-52,-52,-47,-15
1.59111995750448e+15,42,23,24,3,24,24,18,27
1.59111995751255e+15,-7,20,17,36,22,22,44,11
1.59111995751255e+15,-29,-25,-19,-37,-15,-15,-41,-35
1.59111995752819e+15,53,9,12,-3,-1,-1,-16,9
1.59111995752819e+15,-18,13,30,43,9,9,9,14
1.59111995752896e+15,-12,-10,-16,-20,7,7,2,-30
1.59111995752896e+15,35,7,-7,-11,-3,-3,1,25
1.59111995755063e+15,1,9,-10,-13,25,25,44,13
1.59111995755063e+15,8,-4,1,5,0,0,-36,-19
1.59111995755222e+15,21,15,5,9,4,4,18,39
1.59111995755222e+15,36,5,8,-4,1,1,-5,2
1.59111995757292e+15,-32,-8,-14,11,-26,-26,13,1
1.59111995757292e+15,10,-4,-7,-15,-6,-6,-17,2
1.59111995757881e+15,-19,-6,12,-6,-8,-8,-2,-9
1.59111995757881e+15,-21,-1,-7,24,-4,-4,-13,-8
1.59111995758815e+15,-68,-13,-12,-10,7,7,10,-26
1.59111995758815e+15,36,7,4,9,-1,-1,-15,12
1.59111995758916e+15,14,7,-11,0,9,9,13,7
1.59111995758916e+15,-16,19,21,1,27,27,55,31
1.59111995761051e+15,-24,-5,-8,4,2,2,-13,-13
1.59111995761051e+15,7,-22,-15,-8,-48,-48,-46,-18
1.59111995761154e+15,6,7,0,5,6,6,29,12
1.59111995761154e+15,41,5,4,-5,-2,-2,-16,5
1.59111995763259e+15,15,-1,-5,-12,-8,-8,2,5
1.59111995763259e+15,-34,-2,-8,-22,16,16,24,3
1.59111995763391e+15,-12,-8,0,1,-12,-12,-18,-20
1.59111995763391e+15,20,9,3,10,1,1,10,7
1.59111995764732e+15,-100,-26,-1,-1,-10,-10,-45,-24
1.59111995764732e+15,44,13,-4,-6,10,10,22,18
1.59111995764931e+15,6,4,6,11,7,7,-2,-11
1.59111995764931e+15,14,29,12,19,37,37,51,40
1.59111995767014e+15,24,-8,1,-3,-18,-18,-19,-22
1.59111995767014e+15,0,-27,-24,-28,-39,-39,-59,-24
1.59111995767215e+15,-28,-6,6,13,-15,-15,-17,-6
1.59111995767215e+15,-13,-21,-15,-10,-27,-27,-42,-26
1.5911199576934e+15,11,15,-5,-6,28,28,36,17
1.5911199576934e+15,-20,-6,-6,4,-12,-12,-6,-4
1.59111995769464e+15,17,11,11,4,15,15,8,6
1.59111995769464e+15,-41,-0,-8,-7,21,21,33,-2
1.59111995770822e+15,-11,-8,2,-12,-25,-25,6,-8
1.59111995770822e+15,-13,-21,-3,-10,-28,-28,-47,-29
1.59111995770922e+15,32,4,-9,7,-5,-5,-6,11
1.59111995770922e+15,-32,-11,2,-8,-1,-1,-16,-23
1.5911199577303e+15,1,8,0,5,12,12,12,10
1.5911199577303e+15,67,26,2,2,23,23,22,44
1.5911199577313e+15,-3,12,3,-7,21,21,49,11
1.5911199577313e+15,-8,-34,-22,-14,-52,-52,-63,-52
1.59111995775349e+15,-40,2,7,19,22,22,-2,-13
1.59111995775349e+15,-47,-21,-13,-12,-23,-23,-17,-26
1.5911199577545e+15,-12,-10,7,2,-17,-17,-34,-7
1.5911199577545e+15,51,11,3,-11,6,6,5,23
1.5911199577759e+15,24,-1,-4,-2,-9,-9,-12,-4
1.5911199577759e+15,105,40,19,21,28,28,49,32
1.59111995777691e+15,-81,-26,-24,-26,-9,-9,-12,-25
1.59111995777691e+15,-54,-4,5,10,-6,-6,16,0
1.59111995779052e+15,-4,-5,-5,16,-5,-5,-18,-23
1.59111995779052e+15,-63,-13,-17,-31,8,8,-3,5
1.59111995779232e+15,62,17,9,2,3,3,24,18
1.59111995779232e+15,46,8,8,7,6,6,-15,-9
1.59111995782005e+15,39,5,0,-9,-21,-21,3,40
1.59111995782005e+15,-4,11,3,19,17,17,31,-8
1.59111995782205e+15,35,3,-10,-14,1,1,-5,9
1.59111995782205e+15,-30,-17,-3,-8,-23,-23,-27,-14
1.59111995782782e+15,-65,-12,-11,-8,7,7,-8,-9
1.59111995782782e+15,-13,-4,-3,-2,3,3,-5,-22
1.59111995784191e+15,15,14,14,16,10,10,21,20
1.59111995784191e+15,-19,-3,-13,-16,9,9,19,-16
1.5911199578506e+15,-20,-10,-3,-13,-2,-2,-13,-11
1.5911199578506e+15,-31,-7,-3,4,-7,-7,-13,-4
1.59111995785136e+15,-30,-9,-3,2,-4,-4,-12,-19
1.59111995785136e+15,60,14,2,2,-1,-1,-2,37
1.59111995787348e+15,52,9,2,4,6,6,4,-10
1.59111995787348e+15,-64,-14,-5,-17,-8,-8,12,-8
1.59111995787462e+15,-10,13,11,19,26,26,23,3
1.59111995787462e+15,51,18,5,10,9,9,14,19
1.5911199578874e+15,-20,-15,-10,-18,-15,-15,-37,1
1.5911199578874e+15,7,-4,15,37,-19,-19,-31,-29
1.59111995789526e+15,-77,-34,-23,-32,-20,-20,-36,-39
1.59111995789526e+15,2,3,0,10,4,4,-7,9
1.59111995791081e+15,38,23,24,43,12,12,15,12
1.59111995791081e+15,47,9,-18,-27,-1,-1,26,30
1.59111995791141e+15,-22,-6,5,-16,3,3,-9,-6
1.59111995791141e+15,15,9,8,20,-1,-1,9,13
1.59111995793237e+15,68,11,-14,-30,9,9,18,23
1.59111995793237e+15,35,31,25,27,35,35,40,21
1.59111995793437e+15,-56,-48,-30,-25,-72,-72,-73,-46
1.59111995793437e+15,-35,-22,-7,-16,-11,-11,-40,-34
1.59111995794843e+15,-66,-9,5,7,4,4,-2,-20
1.59111995794843e+15,62,12,-1,-9,0,0,23,9
1.59111995795543e+15,36,27,7,16,28,28,31,46
1.59111995795543e+15,-48,-7,1,0,-1,-1,4,-11
1.59111995797773e+15,101,5,-16,-14,-26,-26,-21,20
1.59111995797773e+15,-24,-2,1,-2,13,13,-3,-7
1.59111995797973e+15,-70,-18,-10,-1,-11,-11,4,-31
1.59111995797973e+15,24,3,1,0,-8,-8,2,8
1.59111995799336e+15,68,28,24,29,49,49,6,-10
1.59111995799336e+15,-55,1,-5,-2,11,11,31,16
1.59111995799439e+15,24,-25,-15,-34,-48,-48,-38,-21
1.59111995799439e+15,-32,-1,8,-3,8,8,1,-7
1.59111995800773e+15,-36,-10,-7,-7,-14,-14,8,-10
1.59111995800773e+15,99,26,24,22,18,18,-7,18
1.59111995801458e+15,-47,1,-11,0,8,8,27,28
1.59111995801458e+15,-3,4,10,3,9,9,-5,4
1.59111995803078e+15,22,11,-12,-5,-2,-2,43,22
1.59111995803078e+15,-25,-13,4,8,-16,-16,-35,-23
1.59111995803136e+15,12,-9,1,9,-23,-23,-41,-22
1.59111995803136e+15,10,1,-2,-7,18,18,9,-16
1.59111995805332e+15,-46,-8,-3,-7,-7,-7,3,9
1.59111995805332e+15,50,5,4,7,-10,-10,-17,4
1.59111995805463e+15,56,21,6,-1,18,18,28,19
1.59111995805463e+15,-95,-20,-8,6,-17,-17,-2,-23
1.59111995806774e+15,5,-12,1,-19,-12,-12,-36,-9
1.59111995806774e+15,-1,3,-2,-9,14,14,13,3
1.59111995808115e+15,63,23,10,23,10,10,14,24
1.59111995808115e+15,-39,-10,-14,-5,1,1,-10,-30
1.59111995809801e+15,34,18,20,15,14,14,15,30
1.59111995809801e+15,7,-3,-16,-14,-22,-22,28,12
1.59111995809901e+15,-69,-24,-2,-11,-6,-6,-32,-53
1.59111995809901e+15,60,12,-4,4,8,8,2,11
1.59111995811349e+15,-14,-14,-8,-19,-24,-24,-18,4
1.59111995811349e+15,14,20,13,5,26,26,39,27
1.5911199581145e+15,-13,-17,-12,-6,-31,-31,-28,-26
1.5911199581145e+15,-14,2,-5,-10,21,21,12,9
1.59111995812766e+15,-13,-6,0,11,-12,-12,-12,-17
1.59111995812766e+15,-59,-20,-8,-16,-8,-8,-23,-22
1.59111995813537e+15,39,28,6,13,31,31,55,35
1.59111995813537e+15,12,2,13,-10,16,16,-22,-13
1.59111995814989e+15,-17,-15,-2,31,-38,-38,-55,-11
1.59111995814989e+15,-14,-29,-30,-43,-21,-21,-47,-22
1.59111995815193e+15,24,23,21,3,28,28,51,25
1.59111995815193e+15,45,10,-1,9,-12,-12,1,20
1.59111995817315e+15,0,10,9,19,18,18,24,-21
1.59111995817315e+15,-26,-8,-7,-10,0,0,-22,3
1.59111995817416e+15,7,-9,-11,-10,-13,-13,-22,-14
1.59111995817416e+15,46,16,6,-6,-1,-1,26,41
1.59111995818789e+15,17,7,-3,-2,16,16,13,-10
1.59111995818789e+15,-90,-31,-8,6,-44,-44,-27,-47
1.59111995819468e+15,50,16,8,-1,35,35,14,18
1.59111995819468e+15,17,22,7,-3,27,27,56,27
1.59111995821079e+15,-69,-43,-25,-41,-64,-64,-32,-38
1.59111995821079e+15,57,24,27,43,11,11,3,10
1.59111995821141e+15,37,-12,-20,-18,-13,-13,-61,-17
1.59111995821141e+15,-34,13,4,5,17,17,78,23
1.59111995823237e+15,-2,-3,-7,-14,2,2,-14,11
1.59111995823237e+15,7,5,4,-3,11,11,11,1
1.59111995823436e+15,20,5,2,21,-12,-12,-15,5
1.59111995823436e+15,39,-2,-1,2,-16,-16,-32,4
1.59111995824675e+15,-31,14,-7,-16,35,35,59,28
1.59111995824675e+15,-18,-32,-9,7,-47,-47,-77,-63
1.59111995825513e+15,42,19,11,5,15,15,21,35
1.59111995825513e+15,17,-7,-13,4,-9,-9,-23,-17
1.59111995826973e+15,71,24,4,-1,15,15,51,28
1.59111995826973e+15,-85,-11,-14,-6,5,5,30,-17
1.59111995827182e+15,22,6,12,13,-2,-2,0,-9
1.59111995827182e+15,44,-0,-5,0,-15,-15,-13,-6
1.59111995829253e+15,-87,-11,7,13,-5,-5,-5,-8
1.59111995829253e+15,70,18,1,1,12,12,8,22
1.59111995829452e+15,-23,1,14,4,12,12,-6,-16
1.59111995829452e+15,-29,-33,-24,-60,-54,-54,-32,4
1.59111995830625e+15,19,4,4,15,13,13,-22,-6
1.59111995830625e+15,6,16,9,14,19,19,22,17
1.59111995831556e+15,-16,11,8,28,9,9,33,7
1.59111995831556e+15,10,-0,-4,5,-1,-1,-27,-2
1.59111995833078e+15,-8,-7,2,0,-4,-4,-17,-17
1.59111995833078e+15,-1,-3,1,-14,-5,-5,-7,4
1.59111995833136e+15,8,-0,-1,9,4,4,-9,-30
1.59111995833136e+15,-28,-26,-10,-22,-29,-29,-54,-14
1.59111995835162e+15,-17,-12,-17,-18,-11,-11,-2,-10
1.59111995835162e+15,14,11,6,0,8,8,21,21
1.59111995836011e+15,6,-3,-2,-24,0,0,-10,2
1.59111995836011e+15,-23,3,3,38,2,2,10,-19
1.59111995837598e+15,-21,16,10,0,35,35,51,17
1.59111995837598e+15,30,-5,-8,-11,-11,-11,-10,-12
1.5911199583771e+15,-30,-25,1,1,-48,-48,-61,-21
1.5911199583771e+15,-17,4,3,-5,26,26,0,-6
1.59111995838974e+15,-13,-13,-3,14,-31,-31,-30,-20
1.59111995838974e+15,52,14,-14,-23,15,15,29,28
1.59111995839789e+15,-44,-1,8,-4,7,7,35,4
1.59111995839789e+15,19,1,2,0,-13,-13,-9,8
1.59111995841261e+15,-37,-2,-5,19,18,18,-14,-29
1.59111995841261e+15,-28,-2,-3,-22,7,7,11,15
1.59111995841973e+15,21,1,-2,9,-12,-12,7,9
1.59111995841973e+15,-1,-8,-4,-8,-5,-5,-30,-9
1.59111995843557e+15,-9,-1,1,-1,7,7,-2,-20
1.59111995843557e+15,52,42,17,45,49,49,42,60
1.59111995843651e+15,-49,-34,-42,-53,-32,-32,-10,-26
1.59111995843651e+15,56,8,11,2,-17,-17,9,5
1.59111995845199e+15,2,10,13,-11,21,21,30,13
1.59111995845199e+15,-5,-27,-13,-22,-59,-59,-38,-20
1.59111995845686e+15,-15,2,-3,2,21,21,4,-7
1.59111995845686e+15,-10,10,0,-18,33,33,35,11
1.59111995847343e+15,34,-15,-6,8,-44,-44,-61,-22
1.59111995847343e+15,2,13,2,11,20,20,27,9
1.59111995847444e+15,-37,2,-1,-4,9,9,23,19
1.59111995847444e+15,-12,2,1,18,1,1,0,-13
1.59111995848703e+15,78,10,0,-11,-1,-1,5,18
1.59111995848703e+15,-39,-7,6,3,1,1,-1,-23
1.5911199584954e+15,-2,-7,-18,-9,-7,-7,-12,3
1.5911199584954e+15,-21,-7,6,3,-15,-15,-14,-11
1.59111995851077e+15,35,23,7,9,30,30,36,34
1.59111995851077e+15,63,-5,-7,-11,-18,-18,-52,-13
1.59111995851142e+15,-67,-20,2,-7,-19,-19,-7,-33
1.59111995851142e+15,-56,-11,-16,-9,13,13,7,-9
1.59111995853271e+15,20,-1,-7,-7,-23,-23,-6,20
1.59111995853271e+15,-32,-3,9,13,14,14,-15,-19
1.59111995853894e+15,23,13,7,22,-4,-4,1,19
1.59111995853894e+15,79,27,9,21,22,22,31,7
1.59111995854672e+15,-43,-5,-13,-28,-16,-16,55,22
1.59111995854672e+15,-52,-23,-9,-1,-16,-16,-42,-23
1.59111995855564e+15,66,32,8,14,46,46,32,19
1.59111995855564e+15,32,-23,-14,-16,-72,-72,-39,-10
1.59111995857054e+15,-69,-10,9,0,29,29,-20,-38
1.59111995857054e+15,43,20,6,-1,21,21,26,21
1.59111995857253e+15,45,10,-2,-8,-5,-5,20,29
1.59111995857253e+15,13,7,14,14,13,13,-24,9
1.59111995859347e+15,7,-3,-4,-13,-9,-9,4,-6
1.59111995859347e+15,-10,-9,-3,4,-6,-6,-13,-24
1.59111995859448e+15,4,22,5,8,52,52,34,14
1.59111995859448e+15,13,27,6,23,35,35,69,18
1.59111995860743e+15,-11,-48,-6,-13,-90,-90,-128,-48
1.59111995860743e+15,-50,-2,0,5,18,18,20,-14
1.59111995861513e+15,46,4,-10,-19,-24,-24,24,47
1.59111995861513e+15,25,6,8,2,12,12,-14,-3
1.59111995863108e+15,-52,-18,-32,-35,2,2,10,-13
1.59111995863108e+15,81,28,24,33,4,4,19,24
1.59111995863288e+15,-59,19,14,37,52,52,29,3
1.59111995863288e+15,-75,-47,-32,-39,-63,-63,-45,-35
1.591119958654e+15,23,-1,13,41,-8,-8,-60,-32
1.591119958654e+15,71,9,-10,-19,-18,-18,13,39
1.59111995865501e+15,-50,-12,11,5,8,8,-26,-28
1.59111995865501e+15,-19,-7,-29,-32,4,4,32,9
1.59111995867591e+15,26,30,25,11,34,34,45,49
1.59111995867591e+15,-80,-40,-36,-35,-31,-31,-32,-46
1.59111995867643e+15,58,-0,-2,0,-19,-19,-30,-3
1.59111995867643e+15,-7,20,19,21,35,35,21,17
1.5911199586908e+15,14,3,-7,0,2,2,12,-19
1.5911199586908e+15,27,11,-1,9,-1,-1,-9,38
1.59111995869139e+15,5,-23,-4,-25,-34,-34,-59,-24
1.59111995869139e+15,-34,-13,5,1,-7,-7,-21,-28
1.5911199587131e+15,69,22,-5,-7,19,19,46,31
1.5911199587131e+15,-119,-20,-4,-23,11,11,17,-23
1.59111995871411e+15,13,-3,-9,10,-16,-16,-14,-9
1.59111995871411e+15,56,14,14,-2,17,17,-8,9
1.59111995873616e+15,-69,1,8,16,6,6,28,6
1.59111995873616e+15,29,-11,-18,-14,-22,-22,-25,-17
1.59111995874262e+15,1,-15,3,2,-16,-16,-50,-31
1.59111995874262e+15,3,14,-2,-6,17,17,26,24
1.59111995875833e+15,48,-5,-8,-5,-20,-20,-28,-9
1.59111995875833e+15,5,4,-1,-7,-6,-6,20,23
1.59111995875918e+15,-70,-14,6,-10,-5,-5,13,-21
1.59111995875918e+15,12,-3,-4,7,-10,-10,-24,-1
1.59111995878034e+15,20,9,2,6,11,11,0,11
1.59111995878034e+15,61,28,5,9,40,40,25,21
1.59111995878209e+15,0,-2,-8,-18,-4,-4,26,2
1.59111995878209e+15,16,-5,5,9,-29,-29,-14,-4
1.59111995879596e+15,-23,-7,-1,-1,6,6,-22,-22
1.59111995879596e+15,28,5,11,7,-4,-4,-10,1
1.59111995879708e+15,49,19,0,-3,14,14,38,21
1.59111995879708e+15,-47,-21,-7,-8,-10,-10,-30,-39
1.59111995880968e+15,23,16,-8,-6,10,10,39,46
1.59111995880968e+15,-36,-2,9,15,9,9,6,-27
1.59111995881763e+15,-26,-20,-15,-16,-26,-26,-32,-4
1.59111995881763e+15,-28,-15,-14,-10,-16,-16,-9,-19
1.59111995883237e+15,11,-0,1,-6,4,4,-16,10
1.59111995883237e+15,6,37,33,31,61,61,64,12
1.59111995883436e+15,2,-38,-32,-24,-71,-71,-88,-40
1.59111995883436e+15,-14,-7,6,1,-13,-13,-12,0
1.59111995885573e+15,0,-8,-16,-14,-6,-6,9,-17
1.59111995885573e+15,-1,-0,0,-2,-8,-8,-9,19
1.59111995885672e+15,14,22,13,15,28,28,50,8
1.59111995885672e+15,-48,-5,-9,-6,9,9,14,-5
1.59111995886992e+15,10,-0,4,4,1,1,-12,-4
1.59111995886992e+15,27,5,9,1,-7,-7,-4,3
1.59111995888449e+15,-19,-14,-6,-5,-17,-17,-24,-12
1.59111995888449e+15,-25,6,-3,-12,14,14,44,14
1.59111995889309e+15,9,-2,-6,4,2,2,-15,-13
1.59111995889309e+15,-11,-8,0,0,-16,-16,-14,-7
1.59111995889452e+15,27,11,7,7,22,22,-9,1
1.59111995889452e+15,6,3,-8,2,-11,-11,21,19
1.59111995891552e+15,-2,-4,9,3,-19,-19,-8,1
1.59111995891552e+15,-14,-10,-13,-20,7,7,-14,-15
1.59111995891652e+15,-4,15,11,19,17,17,12,21
1.59111995891652e+15,29,3,1,3,-6,-6,-2,-1
1.5911199589303e+15,-48,-7,-7,-17,2,2,18,-1
1.5911199589303e+15,-59,-24,-17,5,-20,-20,-38,-30
1.59111995893711e+15,38,31,13,7,39,39,61,42
1.59111995893711e+15,42,-8,-1,2,-18,-18,-50,-13
1.59111995895339e+15,-28,-8,0,-16,-2,-2,-4,-10
1.59111995895339e+15,23,-7,-4,-7,-33,-33,-42,17
1.5911199589544e+15,-37,11,2,9,40,40,65,-9
1.5911199589544e+15,10,-0,1,13,-23,-23,3,0
1.59111995897544e+15,-1,-2,2,3,-6,-6,-21,9
1.59111995897544e+15,-81,-3,-6,-7,33,33,58,-21
1.59111995897716e+15,46,17,7,-12,14,14,27,16
1.59111995897716e+15,17,-10,-2,-5,-24,-24,-37,-15
1.59111995898964e+15,27,19,1,18,26,26,26,21
1.59111995898964e+15,22,-16,-4,-9,-55,-55,-31,-1
1.59111995899662e+15,13,-9,-1,3,-18,-18,-33,-21
1.59111995899662e+15,-13,11,-3,0,29,29,29,15
1.59111995901265e+15,-33,-10,1,-1,-9,-9,-19,-17
1.59111995901265e+15,38,20,6,18,20,20,30,17
1.59111995901464e+15,-61,-29,-11,-29,-31,-31,-26,-29
1.59111995901464e+15,19,-4,0,-12,11,11,-20,-17
1.59111995903578e+15,9,8,1,11,-1,-1,6,15
1.59111995903578e+15,36,19,0,0,1,1,53,42
1.59111995904188e+15,-28,-15,1,13,-5,-5,-43,-38
1.59111995904188e+15,-50,8,-10,-7,16,16,72,18
1.59111995904973e+15,81,10,5,-12,6,6,-15,14
1.59111995904973e+15,-8,-21,-10,-27,-30,-30,-28,-35
1.59111995905718e+15,28,19,17,25,0,0,16,39
1.59111995905718e+15,31,10,-19,-12,18,18,29,5
1.59111995907338e+15,-14,-19,4,10,-16,-16,-67,-52
1.59111995907338e+15,-1,-10,12,4,-27,-27,-37,-10
1.59111995907465e+15,35,7,-8,5,-4,-4,5,17
1.59111995907465e+15,41,25,7,21,35,35,16,24
1.59111995909566e+15,-92,-15,-10,-6,-2,-2,15,-7
1.59111995909566e+15,34,6,-10,-10,7,7,1,5
1.59111995910273e+15,-5,2,4,-10,14,14,12,-4
1.59111995910273e+15,-4,-4,6,19,-35,-35,-17,3
1.5911199591096e+15,-45,-21,-11,-23,5,5,-29,-30
1.5911199591096e+15,-16,-0,5,-4,10,10,13,-8
1.59111995912458e+15,-5,-1,-10,-15,1,1,16,16
1.59111995912458e+15,52,4,17,3,-11,-11,-43,10
1.59111995913241e+15,33,13,-2,-12,13,13,32,13
1.59111995913241e+15,-36,-8,1,4,-11,-11,0,-16
1.5911199591344e+15,13,4,-15,11,7,7,-27,12
1.5911199591344e+15,-20,-14,-1,-10,-17,-17,-20,-20
1.59111995915562e+15,20,13,5,17,-5,-5,22,26
1.59111995915562e+15,52,29,3,7,43,43,44,29
1.59111995915663e+15,-56,-11,3,-17,4,4,0,-25
1.59111995915663e+15,-41,-33,0,14,-53,-53,-59,-50
1.59111995916946e+15,-1,-13,-16,-22,-33,-33,-12,12
1.59111995916946e+15,71,21,2,14,23,23,6,6
1.59111995917838e+15,-30,-12,-15,-21,-6,-6,-5,10
1.59111995917838e+15,-10,13,4,-7,35,35,32,18
1.59111995919316e+15,-44,-12,-14,10,-11,-11,-3,-27
1.59111995919316e+15,-34,-4,8,2,-5,-5,-4,7
1.59111995919882e+15,35,15,14,21,8,8,10,1
1.59111995919882e+15,-58,-13,-10,-27,11,11,-5,-16
1.59111995921555e+15,49,14,8,13,5,5,2,26
1.59111995921555e+15,0,5,4,3,12,12,-10,-1
1.59111995921655e+15,-1,-32,-8,-13,-61,-61,-65,-42
1.59111995921655e+15,37,8,2,9,-17,-17,3,20
1.59111995923795e+15,58,13,7,-16,17,17,7,10
1.59111995923795e+15,-67,-18,-10,21,-9,-9,-36,-36
1.59111995924419e+15,27,-0,-12,-25,7,7,24,-7
1.59111995924419e+15,42,15,13,3,14,14,5,17
1.59111995925247e+15,49,7,-1,-8,14,14,12,-15
1.59111995925247e+15,-35,-9,-6,9,-21,-21,-16,-3
1.59111995926797e+15,6,14,20,16,14,14,16,14
1.59111995926797e+15,-95,-1,-15,18,32,32,25,-4
1.59111995927572e+15,-1,5,11,-10,-10,-10,26,23
1.59111995927572e+15,-4,-18,-7,-18,-20,-20,-35,-24
1.59111995927753e+15,-42,-15,-13,3,-15,-15,-38,-12
1.59111995927753e+15,24,4,8,-13,8,8,8,-7
1.59111995929773e+15,12,-2,-7,-4,-21,-21,11,5
1.59111995929773e+15,-37,-12,-4,-15,2,2,-1,-14
1.59111995929972e+15,-4,-6,3,-1,-7,-7,-21,-24
1.59111995929972e+15,37,15,16,27,-9,-9,13,30
1.59111995932081e+15,-97,-29,-21,-6,-18,-18,-32,-32
1.59111995932081e+15,21,6,-2,-2,1,1,10,-4
1.59111995932236e+15,37,13,7,4,-4,-4,14,31
1.59111995932236e+15,-5,-4,-10,-13,15,15,0,-17
1.59111995933587e+15,-46,-2,7,8,10,10,6,-14
1.59111995933587e+15,9,-0,1,-9,-6,-6,-12,12
1.59111995933688e+15,91,27,-7,4,21,21,49,25
1.59111995933688e+15,-35,-22,-2,-4,-44,-44,-22,-21
1.59111995934976e+15,19,8,-2,-6,20,20,13,8
1.59111995934976e+15,-12,-18,-10,-4,-20,-20,-51,-31
1.59111995935837e+15,-44,-6,8,-10,16,16,-10,-10
1.59111995935837e+15,46,10,-1,-5,-27,-27,25,32
1.59111995937366e+15,-25,13,12,25,35,35,19,-2
1.59111995937366e+15,12,6,-3,-2,4,4,12,19
1.59111995937466e+15,38,15,9,25,9,9,6,3
1.59111995937466e+15,-67,-26,-13,-8,-8,-8,-35,-43
1.59111995939497e+15,13,2,3,-11,10,10,-13,0
1.59111995939497e+15,-33,-6,-8,-13,-9,-9,27,16
1.59111995940276e+15,-28,-14,2,-7,-22,-22,-34,-9
1.59111995940276e+15,-25,16,-1,-3,53,53,53,10
1.59111995940852e+15,6,-19,-3,1,-54,-54,-37,-9
1.59111995940852e+15,52,16,-6,-10,14,14,31,21
1.59111995941791e+15,54,16,-9,-21,9,9,40,37
1.59111995941791e+15,-28,-2,14,44,-20,-20,-24,-18
1.5911199594406e+15,-26,-11,-10,-12,-2,-2,-25,-16
1.5911199594406e+15,18,2,3,5,8,8,-2,-14
1.59111995944154e+15,-38,-0,4,12,-8,-8,8,22
1.59111995944154e+15,51,18,-10,-15,28,28,40,23
1.59111995947128e+15,-24,-11,-6,-20,-10,-10,4,-16
1.59111995947128e+15,-20,-6,12,13,-13,-13,-15,-14
1.59111995947296e+15,28,-0,-27,-35,9,9,3,21
1.59111995947296e+15,46,10,16,13,3,3,-25,11
1.59111995947296e+15,13,3,-10,-23,-2,-2,33,2
1.59111995947296e+15,5,-29,-8,-19,-40,-40,-90,-41
1.5911199594854e+15,-7,7,15,41,12,12,0,-21
1.5911199594854e+15,-24,-6,-16,-24,0,0,-6,15
1.5911199594934e+15,-30,1,7,12,16,16,8,-7
1.5911199594934e+15,13,9,-7,-8,10,10,29,20
1.59111995949486e+15,10,3,4,5,-4,-4,1,1
1.59111995949486e+15,-4,-8,-6,4,-16,-16,-19,-14
1.59111995951537e+15,98,36,12,17,34,34,31,28
1.59111995951537e+15,-40,-26,-4,-11,-25,-25,-40,-22
1.59111995951654e+15,6,2,4,-9,-8,-8,7,12
1.59111995951654e+15,-23,7,-17,5,22,22,31,18
1.59111995952954e+15,19,-20,0,-8,-46,-46,-64,-27
1.59111995952954e+15,-4,6,4,12,17,17,15,-17
1.59111995954459e+15,-49,-23,-10,-27,-33,-33,-20,-9
1.59111995954459e+15,45,24,33,20,33,33,16,1
1.59111995955268e+15,-23,-11,-29,-9,-19,-19,2,18
1.59111995955268e+15,4,7,-13,5,8,8,9,22
1.59111995955467e+15,-20,-10,0,-10,5,5,-19,-23
1.59111995955467e+15,-46,-15,-4,0,-28,-28,-3,-25
1.59111995957606e+15,20,13,-1,13,13,13,10,12
1.59111995957606e+15,3,-15,-3,-9,-17,-17,-48,-27
1.59111995957735e+15,10,19,-5,0,29,29,72,27
1.59111995957735e+15,6,-16,2,-24,-12,-12,-53,-19
1.59111995958974e+15,7,2,12,14,-5,-5,-18,1
1.59111995958974e+15,14,32,-1,13,30,30,96,37
1.5911199595981e+15,0,-29,-10,-37,-45,-45,-56,-31
1.5911199595981e+15,-39,-7,-7,8,13,13,-4,-8
1.59111995961325e+15,28,3,5,0,-25,-25,8,1
1.59111995961325e+15,-14,1,-1,6,16,16,-12,2
1.59111995961416e+15,8,-4,5,6,2,2,-55,1
1.59111995961416e+15,45,12,-9,-17,-9,-9,55,18
1.59111995963515e+15,-32,-0,7,13,19,19,-1,-14
1.59111995963515e+15,70,6,-12,-12,-19,-19,3,25
1.59111995963715e+15,-62,-21,-9,-8,-7,-7,-30,-39
1.59111995963715e+15,79,27,8,18,21,21,13,39
1.59111995965847e+15,-75,-40,-7,-11,-35,-35,-68,-70
1.59111995965847e+15,67,18,4,-2,1,1,19,31
1.59111995965948e+15,-56,6,6,10,34,34,38,2
1.59111995965948e+15,-1,-17,-14,-34,-16,-16,-34,-23
1.59111995967288e+15,37,25,17,40,17,17,34,34
1.59111995967288e+15,-48,-6,-4,-6,-6,-6,10,-2
1.59111995968705e+15,11,9,-7,20,9,9,11,-2
1.59111995968705e+15,-8,-24,-4,-24,-22,-22,-62,-34
1.59111995969603e+15,35,16,9,-6,13,13,38,27
1.59111995969603e+15,-49,-11,-4,-5,0,0,-13,-12
1.59111995969712e+15,-8,23,8,14,56,56,40,15
1.59111995969712e+15,-86,-55,-23,-23,-75,-75,-79,-48
1.59111995971821e+15,-11,-4,-3,-3,-4,-4,4,-2
1.59111995971821e+15,-14,-7,-8,-30,-6,-6,20,-6
1.59111995971922e+15,101,18,12,10,-18,-18,-5,21
1.59111995971922e+15,-24,13,4,15,32,32,39,5
1.59111995973247e+15,-34,-21,-8,-3,-25,-25,-54,-15
1.59111995973247e+15,47,23,15,13,23,23,20,18
1.5911199597344e+15,-8,-28,-18,-19,-38,-38,-41,-40
1.5911199597344e+15,16,16,12,11,18,18,20,16
1.59111995976348e+15,-16,8,-7,9,13,13,27,5
1.59111995976348e+15,23,29,22,23,41,41,37,31
1.59111995976449e+15,-30,-32,-15,-11,-57,-57,-59,-25
1.59111995976449e+15,14,-4,-1,-20,-2,-2,-8,-3
1.5911199597773e+15,-18,6,2,15,17,17,2,15
1.5911199597773e+15,-28,-26,-8,-18,-4,-4,-61,-55
1.5911199597857e+15,5,13,6,26,-27,-27,52,32
1.5911199597857e+15,-33,1,8,3,14,14,6,0
1.59111995979272e+15,19,-1,-22,-35,8,8,30,-6
1.59111995979272e+15,-7,5,8,13,-3,-3,2,13
1.59111995979867e+15,-13,-13,-9,-13,-8,-8,-22,-22
1.59111995979867e+15,-15,-3,-1,2,-12,-12,17,2
1.59111995982288e+15,52,10,11,8,0,0,-12,-8
1.59111995982288e+15,-27,-1,-8,5,4,4,8,10
1.59111995982486e+15,-1,3,5,-4,7,7,4,5
1.59111995982486e+15,82,24,9,16,20,20,9,17
1.59111995984591e+15,21,5,5,-3,-8,-8,10,4
1.59111995984591e+15,-69,-30,-13,-13,-34,-34,-34,-27
1.59111995984696e+15,-43,-17,-7,-13,-14,-14,7,-32
1.59111995984696e+15,-11,-0,0,-1,-3,-3,-7,17
1.59111995985233e+15,12,6,16,0,17,17,-3,-6
1.59111995985233e+15,65,24,-1,5,12,12,40,30
1.59111995987656e+15,-47,-7,-14,9,1,1,-27,4
1.59111995987656e+15,-7,-6,3,-5,2,2,1,-30
1.59111995987656e+15,33,6,-22,-35,-3,-3,31,43
1.59111995987656e+15,-40,-16,0,2,-2,-2,-30,-25
1.59111995987859e+15,84,26,11,9,6,6,30,33
1.59111995987859e+15,-79,-12,-9,9,4,4,-15,-24
1.59111995989869e+15,-59,-8,15,32,-2,-2,-22,-28
1.59111995989869e+15,87,-3,-11,-31,-21,-21,-24,-12
1.5911199598997e+15,-8,18,-3,1,32,32,61,31
1.5911199598997e+15,-20,-8,7,-17,-8,-8,8,-24
1.59111995991276e+15,-17,4,-18,9,17,17,9,14
1.59111995991276e+15,12,-1,7,-9,-12,-12,-2,7
1.59111995992711e+15,42,20,6,33,12,12,12,15
1.59111995992711e+15,101,31,5,-14,26,26,31,56
1.59111995993584e+15,-47,-24,-2,3,-15,-15,-41,-60
1.59111995993584e+15,-19,-17,0,6,-41,-41,-41,-11
1.59111995993689e+15,70,9,-2,-11,8,8,-8,3
1.59111995993689e+15,-48,-11,-7,-16,-13,-13,11,-5
1.59111995995786e+15,-18,19,11,21,38,38,45,22
1.59111995995786e+15,-9,4,-5,-14,5,5,26,6
1.59111995995887e+15,-7,-5,9,6,1,1,-29,-15
1.59111995995887e+15,22,-11,-13,0,-26,-26,-35,-10
1.59111995997255e+15,-32,-14,-5,-22,-11,-11,-21,-9
1.59111995997255e+15,18,8,6,22,13,13,1,-9
1.59111995997899e+15,-18,10,8,3,20,20,22,17
1.59111995997899e+15,-9,-14,-18,-25,-13,-13,-1,-16
1.59111995999603e+15,-1,-19,-7,-21,-36,-36,-30,-13
1.59111995999603e+15,-67,-0,-6,7,23,23,30,8
1.59111995999714e+15,-15,-4,14,2,0,0,-20,-14
1.59111995999714e+15,-2,-0,-11,11,-15,-15,-5,23
1.59111996001813e+15,42,18,17,16,23,23,18,-2
1.59111996001813e+15,-2,-9,-24,-41,-1,-1,-3,10
1.59111996002008e+15,32,3,-4,-12,-9,-9,16,0
1.59111996002008e+15,-1,17,18,35,28,28,5,2
1.59111996003997e+15,2,-0,-4,-5,-15,-15,6,15
1.59111996003997e+15,-13,12,5,15,32,32,27,-8
1.59111996004198e+15,1,-32,-21,-25,-65,-65,-45,-28
1.59111996004198e+15,12,2,12,10,2,2,-8,-21
1.59111996005519e+15,45,20,-1,-10,18,18,49,23
1.59111996005519e+15,-82,-34,-25,-11,-43,-43,-39,-23
1.59111996005719e+15,10,20,17,7,32,32,17,39
1.59111996005719e+15,-51,-27,-29,-13,-25,-25,-23,-28
1.59111996007845e+15,-29,-12,5,9,-24,-24,-37,4
1.59111996007845e+15,-9,5,13,1,17,17,13,-13
1.591119960079e+15,-32,-1,0,-14,9,9,24,-5
1.591119960079e+15,106,21,12,34,-4,-4,-24,5
1.59111996010084e+15,7,15,-11,-18,31,31,44,41
1.59111996010084e+15,-62,-20,2,8,-17,-17,-35,-33
1.59111996010779e+15,3,-0,-6,2,5,5,-1,-5
1.59111996010779e+15,61,23,10,2,17,17,28,25
1.59111996011528e+15,11,-17,-16,-9,-35,-35,-21,-39
1.59111996011528e+15,28,12,18,20,-20,-20,8,37
1.59111996011725e+15,-13,-4,-2,-23,28,28,4,-23
1.59111996011725e+15,-44,5,-3,5,10,10,22,31
1.59111996013846e+15,59,9,-10,-6,-23,-23,17,28
1.59111996013846e+15,-1,-10,-6,-5,-4,-4,-30,-14
1.59111996013942e+15,-38,-9,-10,4,-22,-22,9,-5
1.59111996013942e+15,29,16,13,6,61,61,-14,0
1.59111996015172e+15,37,3,2,4,-11,-11,-2,-6
1.59111996015172e+15,-9,-6,-1,-4,-9,-9,-2,-18
1.59111996016627e+15,-12,2,-7,5,3,3,3,9
1.59111996016627e+15,-5,-1,-5,-7,-10,-10,20,7
1.59111996017599e+15,-32,-3,5,-1,13,13,-24,1
1.59111996017599e+15,85,9,-8,-22,9,9,1,-2
1.59111996017715e+15,-45,-8,8,14,-13,-13,0,-17
1.59111996017715e+15,-8,-4,-15,2,-10,-10,-5,1
1.59111996019764e+15,-3,2,12,7,0,0,-2,-13
1.59111996019764e+15,14,16,-5,-5,4,4,51,57
1.59111996019964e+15,62,3,-4,-2,-6,-6,-43,10
1.59111996019964e+15,-40,-25,-3,-20,-17,-17,-36,-50
1.59111996021203e+15,-115,-22,-12,-12,4,4,-6,-8
1.59111996021203e+15,-61,-11,-4,12,-2,-2,10,-41
1.59111996022048e+15,76,20,16,25,-8,-8,15,16
1.59111996022048e+15,14,4,-12,-35,0,0,20,33
1.59111996023585e+15,-23,-17,-4,-15,-11,-11,-38,-25
1.59111996023585e+15,-48,11,20,29,19,19,29,12
1.59111996023652e+15,-36,-25,-22,-42,-18,-18,-24,-14
1.59111996023652e+15,22,13,14,19,5,5,12,9
1.59111996025765e+15,34,4,-1,7,2,2,-8,-1
1.59111996025765e+15,10,-5,-10,-6,0,0,-24,-6
1.59111996025965e+15,27,4,7,0,4,4,-6,-9
1.59111996025965e+15,-3,1,1,-1,-11,-11,13,10
1.59111996027227e+15,-23,11,-4,-12,25,25,57,15
1.59111996027227e+15,48,1,10,5,-7,-7,-33,-16
1.59111996028023e+15,-36,-12,-12,-11,-9,-9,-1,-12
1.59111996028023e+15,73,15,11,13,-17,-17,-8,20
1.59111996029601e+15,-47,7,2,11,23,23,26,15
1.59111996029601e+15,-16,-27,-22,-40,-32,-32,-32,-19
1.59111996029701e+15,8,-12,12,12,-13,-13,-82,-19
1.59111996029701e+15,33,28,-4,-15,43,43,91,37
1.59111996031893e+15,-16,-15,0,2,-27,-27,-24,-29
1.59111996031893e+15,-41,6,9,5,16,16,29,3
1.59111996031968e+15,65,24,9,26,14,14,28,18
1.59111996031968e+15,0,-1,-4,-13,16,16,-5,-16
1.59111996034075e+15,-43,-19,-6,2,-19,-19,-33,-34
1.59111996034075e+15,103,30,8,37,-2,-2,9,41
1.59111996034139e+15,23,3,6,8,-7,-7,-12,1
1.59111996034139e+15,-16,8,5,10,40,40,16,-2
1.59111996035598e+15,45,15,1,-10,-12,-12,49,20
1.59111996035598e+15,-2,-23,6,-10,-11,-11,-103,-43
1.59111996035698e+15,-29,-21,-29,-28,-61,-61,38,2
1.59111996035698e+15,70,11,2,-8,-8,-8,12,17
1.59111996037921e+15,-77,-24,-5,-1,5,5,-41,-47
1.59111996037921e+15,69,6,-9,-9,-1,-1,-24,4
1.59111996039244e+15,82,37,20,1,48,48,54,35
1.59111996039244e+15,-88,-21,-11,-2,-18,-18,-19,-21
1.59111996039244e+15,8,12,12,43,4,4,11,9
1.59111996039244e+15,-101,-34,-8,-25,-36,-36,-44,-9
1.59111996040063e+15,57,9,-10,2,11,11,8,-26
1.59111996040063e+15,-75,-22,-7,-4,-7,-7,-11,-28
1.59111996041534e+15,100,26,8,-9,25,25,7,29
1.59111996041534e+15,102,46,24,30,52,52,23,58
1.59111996041727e+15,-73,-36,-23,-27,-62,-62,6,-35
1.59111996041727e+15,-29,-29,-8,-12,-45,-45,-55,-29
1.59111996043783e+15,17,3,-2,1,5,5,-14,1
1.59111996043783e+15,-1,14,-1,2,10,10,60,29
1.59111996043983e+15,-11,10,22,20,36,36,-19,7
1.59111996043983e+15,-58,-14,-9,-23,-7,-7,3,-17
1.5911199604517e+15,33,-5,-4,8,-11,-11,-33,-15
1.5911199604517e+15,-27,2,0,-12,13,13,23,-6
1.59111996045999e+15,-42,-13,-5,-13,-17,-17,-8,1
1.59111996045999e+15,-1,4,5,33,-6,-6,-7,-2
1.59111996047533e+15,76,-3,-10,-21,-34,-34,-15,2
1.59111996047533e+15,100,50,26,29,35,35,74,68
1.5911199604824e+15,-128,-41,-39,-10,0,0,-30,-89
1.5911199604824e+15,110,14,1,-18,-9,-9,-18,30
1.59111996049748e+15,-13,-14,-15,-15,-33,-33,1,-7
1.59111996049748e+15,-25,-11,-10,9,14,14,-26,-45
1.59111996049948e+15,68,22,22,10,6,6,-4,35
1.59111996049948e+15,-14,7,6,-13,18,18,41,14
1.59111996051207e+15,56,-5,-13,-32,4,4,-25,-15
1.59111996051207e+15,20,2,0,16,-36,-36,14,4
1.59111996051999e+15,29,21,17,19,25,25,8,38
1.59111996051999e+15,33,4,3,8,-9,-9,6,-21
1.59111996053588e+15,-75,-9,-6,-9,6,6,2,8
1.59111996053588e+15,-42,-24,0,-16,-28,-28,-44,-28
1.59111996053689e+15,8,24,5,30,46,46,25,15
1.59111996053689e+15,127,34,1,0,1,1,43,55
1.59111996055744e+15,-85,-40,-31,-41,-47,-47,7,-31
1.59111996055744e+15,-51,-20,-5,-31,6,6,-19,-54
1.59111996055943e+15,13,18,2,19,20,20,27,36
1.59111996055943e+15,0,-17,6,9,-23,-23,-52,-47
1.5911199605804e+15,-76,-3,17,17,12,12,-7,14
1.5911199605804e+15,37,10,-25,-7,9,9,28,-12
1.59111996058217e+15,15,4,-5,-1,2,2,0,15
1.59111996058217e+15,-59,-16,-6,9,-14,-14,-10,-12
1.59111996059605e+15,28,27,37,14,38,38,18,27
1.59111996059605e+15,-92,-34,-15,0,-40,-40,-32,-39
1.59111996059706e+15,-33,-6,-13,-18,15,15,3,-20
1.59111996059706e+15,40,2,4,2,0,0,-22,-10
1.59111996061732e+15,76,19,11,28,-15,-15,-16,29
1.59111996061732e+15,71,32,0,-10,47,47,72,37
1.59111996061929e+15,-78,-27,-5,-18,-20,-20,-36,-24
1.59111996061929e+15,-79,-18,-7,-1,-24,-24,-5,-1
1.59111996064077e+15,-1,-9,-19,-24,16,16,-28,-28
1.59111996064077e+15,119,22,1,-1,-18,-18,2,42
1.59111996064139e+15,113,19,-2,-2,-27,-27,23,41
1.59111996064139e+15,0,1,8,8,20,20,-12,-19
1.59111996065524e+15,-65,4,-14,0,35,35,43,3
1.59111996065524e+15,40,-1,4,-6,-40,-40,-10,32
1.59111996065724e+15,6,-2,12,16,2,2,-29,-25
1.59111996065724e+15,-51,-10,-19,-31,-2,-2,6,23
1.5911199606788e+15,-41,4,2,11,14,14,22,-6
1.5911199606788e+15,-10,-7,11,3,1,1,-21,-28
1.59111996068027e+15,-37,-15,-4,-21,-14,-14,-12,-12
1.59111996068027e+15,96,32,19,11,25,25,17,34
1.59111996070056e+15,-62,-16,-2,-3,1,1,-2,-46
1.59111996070056e+15,-61,-20,-29,-16,-26,-26,7,4
1.59111996070155e+15,37,11,12,-2,8,8,7,16
1.59111996070155e+15,12,-0,17,35,-11,-11,-31,-16
1.59111996071423e+15,127,31,3,-6,25,25,-3,39
1.59111996071423e+15,-33,-8,2,3,-15,-15,3,-16
1.59111996072128e+15,-15,-2,-10,-10,11,11,19,-4
1.59111996072128e+15,-10,3,11,5,-7,-7,18,19
1.59111996073837e+15,-36,-23,-13,-34,-17,-17,-29,-25
1.59111996073837e+15,-58,-13,-1,18,3,3,-33,-37
1.59111996073933e+15,21,-2,-10,-4,-5,-5,-20,-7
1.59111996073933e+15,16,13,1,6,15,15,26,8
1.59111996076835e+15,88,19,13,24,-7,-7,-24,27
1.59111996076835e+15,-15,9,3,14,28,28,23,0
1.59111996076936e+15,-90,-31,-18,-46,-24,-24,-18,-5
1.59111996076936e+15,-59,-20,-8,-26,1,1,-18,-24
1.59111996077526e+15,71,26,6,28,2,2,40,18
1.59111996077526e+15,8,8,18,9,2,2,12,8
1.59111996078165e+15,-52,5,2,27,21,21,12,3
1.59111996078165e+15,-2,-23,-43,-38,-28,-28,-28,-9
1.59111996079754e+15,48,-9,10,-7,-38,-38,-51,2
1.59111996079754e+15,33,18,0,5,28,28,37,13
1.59111996079954e+15,47,10,13,18,-2,-2,-3,-6
1.59111996079954e+15,-49,-19,-5,-11,-5,-5,-24,-49
1.59111996082853e+15,52,17,4,10,5,5,20,25
1.59111996082853e+15,24,6,6,9,9,9,-3,-9
1.59111996082954e+15,-77,-21,-12,-8,-18,-18,-14,-8
1.59111996082954e+15,-6,-8,-7,4,-5,-5,-22,-26
1.59111996083534e+15,80,12,-1,-13,-3,-3,5,27
1.59111996083534e+15,-73,-9,-2,-19,9,9,20,-1
1.59111996084182e+15,12,-4,1,12,-5,-5,-11,-40
1.59111996084182e+15,-35,10,1,14,15,15,30,28
1.59111996085842e+15,-10,-8,-2,3,-10,-10,-15,-15
1.59111996085842e+15,5,-4,-8,-23,3,3,3,-1
1.59111996085909e+15,4,4,5,-22,9,9,5,21
1.59111996085909e+15,-31,-11,-1,4,-5,-5,-5,-44
1.59111996088134e+15,10,8,8,24,-4,-4,9,12
1.59111996088134e+15,28,6,7,-2,-2,-2,-14,11
1.59111996088229e+15,52,9,-16,-13,7,7,13,8
1.59111996088229e+15,4,-14,-9,-9,-21,-21,-53,-5
1.59111996089525e+15,-25,4,5,-20,21,21,39,1
1.59111996089525e+15,44,-4,2,1,-23,-23,-26,-14
1.59111996090171e+15,0,9,13,17,10,10,5,-6
1.59111996090171e+15,35,14,-10,-7,2,2,35,45
1.59111996091867e+15,-24,-10,-1,-1,-8,-8,-4,-25
1.59111996091867e+15,-57,-13,-15,-5,-7,-7,-17,5
1.59111996092433e+15,-10,-3,4,-4,1,1,4,-7
1.59111996092433e+15,-40,-9,-3,10,-3,-3,-20,-10
1.59111996094077e+15,56,27,4,8,24,24,37,39
1.59111996094077e+15,-50,-32,-15,-15,-34,-34,-55,-35
1.59111996094138e+15,0,-6,-14,0,-7,-7,-6,-10
1.59111996094138e+15,-10,-2,11,3,-2,-2,-10,-7
1.59111996095444e+15,-24,-22,-18,-15,-21,-21,-30,-32
1.59111996095444e+15,16,10,10,11,31,31,-5,-10
1.59111996096164e+15,109,33,0,-6,3,3,50,74
1.59111996096164e+15,-27,-23,-9,-7,-24,-24,-25,-54
1.59111996097844e+15,-26,-8,-10,-32,-3,-3,12,-1
1.59111996097844e+15,5,11,4,20,10,10,17,2
1.59111996097944e+15,-8,-8,9,4,-13,-13,-21,-13
1.59111996097944e+15,-31,3,8,10,10,10,22,-4
1.59111996100125e+15,8,12,-5,10,24,24,24,11
1.59111996100125e+15,46,6,0,-5,8,8,-19,-1
1.59111996100198e+15,5,-3,7,-3,-26,-26,-4,15
1.59111996100198e+15,68,16,-2,11,8,8,-13,23
1.59111996101456e+15,-104,-30,-8,-8,-26,-26,-24,-37
1.59111996101456e+15,12,19,8,11,14,14,52,33
1.59111996102156e+15,38,18,1,6,31,31,18,7
1.59111996102156e+15,-12,-11,18,-2,-23,-23,-44,-4
1.59111996103806e+15,4,-2,-12,-20,-5,-5,13,8
1.59111996103806e+15,7,31,-1,23,44,44,77,27
1.59111996103903e+15,-85,-34,-1,7,-33,-33,-47,-61
1.59111996103903e+15,54,-15,-20,-23,-44,-44,-51,-1
1.59111996105897e+15,-24,-2,6,2,11,11,-10,1
1.59111996105897e+15,-20,-4,1,-8,11,11,-1,-6
1.59111996106786e+15,30,15,14,20,8,8,7,18
1.59111996106786e+15,-73,-10,-20,-30,7,7,39,-12
1.59111996107449e+15,19,-1,1,-6,-6,-6,-16,0
1.59111996107449e+15,-5,-15,-7,-16,-29,-29,-24,-20
1.5911199610888e+15,15,10,0,-1,25,25,6,-1
1.5911199610888e+15,30,9,-3,-13,11,11,21,15
1.59111996109848e+15,20,10,10,34,3,3,-19,6
1.59111996109848e+15,-5,-4,1,-2,-20,-20,10,-4
1.59111996110388e+15,74,20,3,3,16,16,-5,30
