TimeStamp,emg1,emg2,emg3,emg4,emg5,emg6,emg7,emg8
1.5910980617725e+15,-3,-6,-8,-4,-12,-12,-11,-5
1.5910980617725e+15,2,-5,-32,-16,6,6,1,1
1.59109806177346e+15,-3,5,63,1,-8,-8,-2,-3
1.59109806177346e+15,-4,5,1,26,0,0,-6,1
1.59109806177444e+15,-2,2,7,6,-1,-1,2,1
1.59109806177444e+15,6,5,19,0,-4,-4,1,2
1.59109806177688e+15,-5,-8,-37,-10,-1,-1,-1,-2
1.59109806177688e+15,2,2,5,-4,2,2,3,-1
1.59109806177756e+15,-2,2,2,8,0,0,1,-2
1.59109806177756e+15,-1,2,9,5,1,1,-1,-1
1.59109806178505e+15,0,-0,-8,-1,4,4,1,0
1.59109806178505e+15,1,1,22,-9,-3,-3,-2,-2
1.59109806179996e+15,-4,-8,-34,-13,3,3,-1,-3
1.59109806179996e+15,0,3,5,17,-2,-2,-4,-2
1.5910980618144e+15,-2,-5,-18,-11,-4,-4,0,1
1.5910980618144e+15,-3,-10,-28,-23,-5,-5,-2,-4
1.59109806181553e+15,3,10,22,22,3,3,3,3
1.59109806181553e+15,-4,-1,6,1,-2,-2,-3,-4
1.59109806184579e+15,1,4,-9,6,2,2,2,3
1.59109806184579e+15,-1,-1,5,-3,-1,-1,-3,-4
1.59109806184579e+15,8,-4,-10,-14,-1,-1,2,0
1.59109806184579e+15,-7,-3,-4,0,-2,-2,-2,-3
1.59109806188312e+15,2,4,39,-3,-11,-11,-3,-1
1.59109806188312e+15,8,9,40,12,-1,-1,-4,3
1.59109806188412e+15,-8,-8,-31,-7,-14,-14,6,0
1.59109806188412e+15,-8,-9,1,-13,-13,-13,-11,-3
1.59109806188512e+15,-3,-2,-26,-15,23,23,4,-1
1.59109806188512e+15,4,1,25,-6,-5,-5,-3,-1
1.59109806188772e+15,2,5,10,16,-3,-3,-2,-1
1.59109806188772e+15,4,3,-4,-1,12,12,1,-2
1.59109806189626e+15,6,16,36,39,7,7,2,0
1.59109806189626e+15,-10,-23,-58,-54,-18,-18,-5,-3
1.59109806190295e+15,0,3,-5,13,13,13,3,-1
1.59109806190295e+15,0,2,-2,4,-5,-5,0,0
1.59109806191029e+15,0,2,-4,-1,7,7,0,0
1.59109806191029e+15,0,1,9,5,-10,-10,-2,-4
1.59109806192539e+15,2,-0,-4,-10,16,16,0,3
1.59109806192539e+15,-1,-2,-2,2,-4,-4,-6,1
1.59109806193283e+15,-1,-1,-6,-4,7,7,3,-3
1.59109806193283e+15,-8,-6,-22,2,-6,-6,-3,-3
1.59109806194782e+15,1,5,14,14,-2,-2,-2,-1
1.59109806194782e+15,2,4,16,8,1,1,0,-1
1.59109806195609e+15,-2,-12,-13,-34,-14,-14,-6,-3
1.59109806195609e+15,0,9,-16,42,12,12,0,1
1.59109806197125e+15,2,2,26,-10,-2,-2,-1,0
1.59109806197125e+15,-1,-4,-6,-9,-1,-1,-2,-3
1.59109806197125e+15,-3,3,8,15,-11,-11,2,1
1.59109806197125e+15,-2,-5,-14,-1,-17,-17,-3,3
1.59109806199357e+15,-7,1,-5,1,19,19,6,-6
1.59109806199357e+15,-3,-1,-8,2,-6,-6,3,1
1.59109806199428e+15,1,-5,-4,-12,-3,-3,-10,-1
1.59109806199428e+15,2,-1,14,6,-17,-17,-5,2
1.59109806200858e+15,-6,-8,-9,-15,4,4,-9,-7
1.59109806200858e+15,0,-1,-8,-5,7,7,1,-5
1.59109806201572e+15,2,-2,2,1,-7,-7,-4,-4
1.59109806201572e+15,-5,1,-3,-3,8,8,7,-3
1.59109806203866e+15,-4,-11,-4,-25,-15,-15,-5,-3
1.59109806203866e+15,3,13,31,27,4,4,4,4
1.59109806203966e+15,-7,-4,-53,20,-5,-5,3,5
1.59109806203966e+15,-3,-2,12,-21,4,4,-2,-3
1.59109806205262e+15,-1,-8,-23,-20,-14,-14,-5,1
1.59109806205262e+15,-3,-2,2,-7,3,3,3,-2
1.59109806205362e+15,8,6,26,13,-5,-5,-3,0
1.59109806205362e+15,-2,-2,-2,-8,1,1,1,-2
1.5910980620763e+15,1,7,31,26,-20,-20,2,-4
1.5910980620763e+15,0,-8,-27,-41,18,18,-5,5
1.5910980620773e+15,-7,9,-7,4,33,33,25,1
1.5910980620773e+15,3,-4,-2,0,-9,-9,-21,-3
1.59109806209063e+15,-1,-4,-8,-25,10,10,3,1
1.59109806209063e+15,-7,2,-3,18,-14,-14,4,2
1.59109806209163e+15,1,-5,11,-22,-13,-13,-9,0
1.59109806209163e+15,3,8,24,-21,25,25,9,3
1.59109806212945e+15,0,4,13,37,-21,-21,-7,-4
1.59109806212945e+15,0,-2,-12,16,-7,-7,-10,-8
1.59109806212945e+15,-4,-2,-10,-4,7,7,-9,-5
1.59109806212945e+15,0,-0,5,-1,-11,-11,4,-1
1.59109806213553e+15,-2,-1,5,19,-30,-30,-4,4
1.59109806213553e+15,-5,-14,-27,-37,-1,-1,0,-4
1.59109806214359e+15,0,9,11,3,27,27,15,2
1.59109806214359e+15,-4,-13,-10,-13,-34,-34,-22,-5
1.59109806215027e+15,5,11,1,-4,31,31,18,2
1.59109806215027e+15,7,8,7,14,-1,-1,3,3
1.59109806215128e+15,-5,-11,-13,9,-29,-29,-24,-10
1.59109806215128e+15,7,-11,-21,-26,-14,-14,1,3
1.59109806217373e+15,-11,6,1,10,33,33,8,-2
1.59109806217373e+15,-4,7,27,13,-9,-9,-2,0
1.59109806217373e+15,4,14,35,25,5,5,0,2
1.59109806217373e+15,1,-1,-7,4,3,3,-2,-2
1.59109806218792e+15,-8,-13,-43,10,-14,-14,-24,-11
1.59109806218792e+15,-1,2,4,7,-7,-7,12,0
1.59109806219619e+15,-1,-6,-9,-64,16,16,16,2
1.59109806219619e+15,-5,10,27,60,-10,-10,-22,-9
1.59109806221076e+15,11,3,8,9,-5,-5,-16,-2
1.59109806221076e+15,3,-6,-7,-3,-12,-12,-14,0
1.59109806221154e+15,-16,-30,-30,-2,-119,-119,-16,-5
1.59109806221154e+15,-6,20,0,-11,109,109,39,3
1.59109806224189e+15,6,3,7,-15,18,18,-1,0
1.59109806224189e+15,4,14,6,-2,49,49,30,1
1.59109806224189e+15,14,-6,-10,-18,1,1,-21,0
1.59109806224189e+15,-5,-1,-18,37,-34,-34,-1,0
1.59109806224789e+15,-5,-14,-9,-33,-32,-32,-6,2
1.59109806224789e+15,3,-0,15,5,-11,-11,-16,0
1.59109806225656e+15,-3,-3,-5,23,-49,-49,-8,1
1.59109806225656e+15,6,13,19,-14,67,67,20,-4
1.59109806227189e+15,18,-3,-10,-32,2,2,5,5
1.59109806227189e+15,-39,-10,-7,18,-35,-35,-11,-6
1.59109806227189e+15,-13,-6,-35,-23,23,23,10,-2
1.59109806227189e+15,-4,-2,-15,6,-18,-18,-1,1
1.59109806229358e+15,8,-4,14,-13,-36,-36,-10,-1
1.59109806229358e+15,10,9,15,-17,35,35,15,1
1.59109806229358e+15,2,1,12,22,-4,-4,-25,-5
1.59109806229358e+15,-3,1,21,-6,12,12,-9,-2
1.59109806230779e+15,1,14,7,7,49,49,27,9
1.59109806230779e+15,-1,-27,-34,-94,-29,-29,2,1
1.59109806231626e+15,-8,16,11,46,20,20,14,-1
1.59109806231626e+15,6,-5,-9,2,-39,-39,-9,4
1.59109806233122e+15,-9,3,20,14,18,18,-29,-10
1.59109806233122e+15,-5,-18,-8,-8,-52,-52,-31,-10
1.59109806233122e+15,16,3,-33,-44,50,50,39,10
1.59109806233122e+15,-3,9,19,26,-8,-8,18,-2
1.59109806236097e+15,-2,-1,-16,2,-33,-33,14,12
1.59109806236097e+15,8,14,34,33,51,51,-33,-3
1.59109806236936e+15,-5,-10,-12,-10,-29,-29,-12,-4
1.59109806236936e+15,-3,-0,-12,-14,17,17,12,1
1.59109806237583e+15,-10,-6,-12,-27,9,9,-1,-4
1.59109806237583e+15,10,9,19,18,-13,-13,14,4
1.59109806237689e+15,0,9,6,35,-6,-6,-7,0
1.59109806237689e+15,-2,5,-6,-4,52,52,0,-12
1.591098062399e+15,6,3,2,-2,-12,-12,10,4
1.591098062399e+15,-15,2,-2,0,4,4,11,8
1.59109806240001e+15,-9,-10,-13,-13,-4,-4,-12,-7
1.59109806240001e+15,-8,-11,-5,-4,-44,-44,-10,0
1.59109806242195e+15,0,-3,-5,-7,2,2,-6,-6
1.59109806242195e+15,6,4,-2,21,3,3,3,-5
1.59109806242195e+15,3,4,22,-4,3,3,2,0
1.59109806242195e+15,1,-7,-11,-15,-9,-9,-12,-2
1.59109806242801e+15,-4,1,-5,19,2,2,0,-6
1.59109806242801e+15,4,1,3,6,-6,-6,-9,2
1.59109806243597e+15,1,-4,-1,-21,4,4,2,4
1.59109806243597e+15,6,7,-7,-19,40,40,14,3
1.59109806245027e+15,-2,3,4,10,-2,-2,2,3
1.59109806245027e+15,-1,-2,-10,-7,-3,-3,3,-2
1.59109806245128e+15,-2,1,10,11,-5,-5,-6,-6
1.59109806245128e+15,28,3,7,1,-24,-24,-1,11
1.59109806247304e+15,42,8,7,-2,2,2,-1,4
1.59109806247304e+15,-91,-18,-13,-5,0,0,9,-25
1.59109806247404e+15,21,4,1,0,-1,-1,2,-6
1.59109806247404e+15,-26,-7,-11,2,1,1,-17,-8
1.5910980624967e+15,1,-2,-1,3,-4,-4,-15,-3
1.5910980624967e+15,33,5,-9,-3,1,1,2,10
1.5910980624977e+15,-2,5,7,-2,13,13,9,2
1.5910980624977e+15,-4,-4,-3,0,-16,-16,-3,-2
1.59109806251104e+15,0,-0,0,0,-8,-8,1,2
1.59109806251104e+15,7,-3,-7,-3,-8,-8,-2,-2
1.59109806251104e+15,-11,1,-2,5,13,13,2,-1
1.59109806251104e+15,10,-4,0,-5,-17,-17,-13,0
1.59109806253305e+15,-20,2,-3,10,8,8,10,-3
1.59109806253305e+15,9,-10,-11,-18,-26,-26,-12,-1
1.59109806253433e+15,-1,1,1,-6,2,2,-4,1
1.59109806253433e+15,0,9,3,11,16,16,7,3
1.5910980625569e+15,-14,-7,-1,-1,-18,-18,-5,-7
1.5910980625569e+15,9,8,0,11,23,23,-1,-2
1.5910980625569e+15,2,-5,1,-17,-6,-6,0,-1
1.5910980625569e+15,-7,-3,-15,7,-2,-2,-4,-2
1.59109806257116e+15,-7,-2,-1,-9,6,6,-5,-3
1.59109806257116e+15,14,2,0,3,-22,-22,0,6
1.59109806257116e+15,-5,-0,0,-4,14,14,-5,-4
1.59109806257116e+15,-5,-1,5,6,-11,-11,3,-2
1.5910980625938e+15,-4,-3,-2,-5,-6,-6,0,0
1.5910980625938e+15,4,-1,-5,-4,0,0,-3,-1
1.5910980625938e+15,-4,4,2,14,4,4,2,0
1.5910980625938e+15,2,-0,4,-9,1,1,2,-2
1.59109806261664e+15,-3,-4,-10,-2,-9,-9,0,-3
1.59109806261664e+15,2,-2,1,-3,4,4,-4,-6
1.59109806261715e+15,-1,-5,4,-2,-36,-36,-5,1
1.59109806261715e+15,5,8,0,2,24,24,8,5
1.59109806263112e+15,0,2,3,5,12,12,-17,2
1.59109806263112e+15,-1,1,-5,-11,18,18,7,-1
1.59109806263813e+15,4,5,6,18,3,3,0,-5
1.59109806263813e+15,-3,-7,3,-9,-26,-26,-4,-4
1.59109806265335e+15,-1,-1,-5,-1,-9,-9,3,1
1.59109806265335e+15,6,7,8,12,14,14,7,2
1.59109806265335e+15,-1,-2,-3,-5,-1,-1,-7,-2
1.59109806265335e+15,-3,-7,-4,-14,-13,-13,-5,-3
1.59109806267632e+15,-1,2,5,7,3,3,1,-3
1.59109806267632e+15,-1,1,-3,8,-5,-5,0,-1
1.59109806267728e+15,-4,-1,-3,-11,7,7,3,-2
1.59109806267728e+15,-1,-0,-2,7,-4,-4,1,-1
1.59109806269823e+15,-4,2,-4,0,4,4,9,-1
1.59109806269823e+15,-2,-6,-10,-8,-17,-17,-3,1
1.59109806269922e+15,-3,-2,-3,-12,18,18,-11,-5
1.59109806269922e+15,4,6,9,8,11,11,1,0
1.59109806271348e+15,1,-5,0,-1,-20,-20,-10,-5
1.59109806271348e+15,-6,4,2,5,11,11,15,1
1.59109806271348e+15,4,-3,-1,-4,-26,-26,3,6
1.59109806271348e+15,-4,-3,-7,-18,18,18,-5,-3
1.5910980627367e+15,5,6,9,13,9,9,-3,-1
1.5910980627367e+15,-12,-4,1,5,-13,-13,-11,-4
1.5910980627367e+15,-3,-1,-1,-2,0,0,-1,1
1.5910980627367e+15,-1,-3,0,4,-13,-13,-3,-5
1.59109806275023e+15,7,4,0,-7,3,3,13,10
1.59109806275023e+15,6,-0,-2,-12,5,5,2,-8
1.5910980627586e+15,-9,-7,-1,4,-10,-10,-22,-11
1.5910980627586e+15,-8,-6,-3,-11,-9,-9,-3,0
1.59109806277358e+15,1,-0,-3,-2,10,10,-4,-1
1.59109806277358e+15,7,1,-4,-7,2,2,8,7
1.59109806277358e+15,8,7,5,7,4,4,12,2
1.59109806277358e+15,1,-0,2,-10,-4,-4,6,2
1.5910980627967e+15,2,-2,-15,-10,-9,-9,11,6
1.5910980627967e+15,-17,-11,-3,0,-6,-6,-33,-12
1.5910980627967e+15,5,3,6,5,-5,-5,7,1
1.5910980627967e+15,-6,-5,-6,-3,-9,-9,-11,-3
1.59109806281054e+15,0,8,8,2,22,22,9,1
1.59109806281054e+15,9,3,-6,3,-5,-5,17,5
1.59109806281827e+15,-10,-6,-7,-8,4,4,-10,-9
1.59109806281827e+15,1,5,2,10,8,8,0,4
1.59109806283301e+15,1,-8,-8,-13,-18,-18,-11,-7
1.59109806283301e+15,7,5,7,5,3,3,-1,3
1.59109806283396e+15,-7,7,19,4,9,9,14,4
1.59109806283396e+15,6,-11,-32,-18,-18,-18,-7,3
1.59109806285596e+15,-8,-7,3,6,-17,-17,-20,-13
1.59109806285596e+15,19,7,19,-1,7,7,-4,1
1.59109806285696e+15,-6,3,-37,-4,19,19,28,11
1.59109806285696e+15,-29,-2,4,-4,10,10,6,-11
1.59109806287852e+15,17,-0,27,10,-31,-31,-20,-6
1.59109806287852e+15,-38,-0,-32,-7,41,41,33,3
1.59109806287952e+15,-23,-11,-6,-17,-8,-8,-8,-7
1.59109806287952e+15,12,8,-1,4,1,1,22,9
1.59109806289309e+15,-3,-5,-10,-4,-14,-14,6,-3
1.59109806289309e+15,21,3,24,5,-6,-6,-26,-2
1.59109806290876e+15,14,2,-3,-7,0,0,-1,7
1.59109806290876e+15,-4,-7,-4,-7,-9,-9,-22,-8
1.59109806291636e+15,-2,12,23,24,14,14,14,6
1.59109806291636e+15,-2,-7,-5,-6,-16,-16,-5,-7
1.5910980629174e+15,-6,-3,-10,-3,2,2,-4,-5
1.5910980629174e+15,6,9,19,21,3,3,7,-2
1.59109806293892e+15,-3,-3,-6,-9,7,7,-6,-2
1.59109806293892e+15,-2,-7,-25,-6,-7,-7,-11,-3
1.59109806294092e+15,-15,-6,-12,-8,-4,-4,-2,-1
1.59109806294092e+15,12,5,43,15,-26,-26,-12,-5
1.59109806296192e+15,5,-1,-43,-14,28,28,13,4
1.59109806296192e+15,5,4,-2,-2,3,3,16,6
1.59109806296293e+15,-10,-8,5,-7,-5,-5,-20,-15
1.59109806296293e+15,1,2,12,8,-2,-2,-1,1
1.59109806297631e+15,-9,-1,6,-5,-3,-3,1,-1
1.59109806297631e+15,11,-1,5,-2,-17,-17,-8,-1
1.59109806298406e+15,12,11,10,7,14,14,14,9
1.59109806298406e+15,-11,-6,-14,-10,-2,-2,6,-3
1.59109806299885e+15,-2,-2,-1,6,-6,-6,-10,-3
1.59109806299885e+15,-4,1,0,13,3,3,-16,-5
1.59109806300085e+15,7,-3,1,0,-9,-9,-13,-3
1.59109806300085e+15,-13,4,-16,2,14,14,21,11
1.59109806302167e+15,-5,-9,-11,-14,-8,-8,-16,-9
1.59109806302167e+15,-8,3,16,3,-2,-2,6,-2
1.59109806302923e+15,-1,2,-4,6,0,0,3,-1
1.59109806302923e+15,17,1,-15,-16,4,4,5,2
1.59109806303626e+15,-4,2,8,3,-1,-1,-4,1
1.59109806303626e+15,-10,-10,-2,-8,-16,-16,-29,-6
1.59109806304309e+15,9,-9,1,-5,-28,-28,-22,-11
1.59109806304309e+15,3,7,4,9,27,27,1,-1
1.59109806305936e+15,-12,-7,-7,-13,-3,-3,4,-4
1.59109806305936e+15,6,1,4,5,-3,-3,-2,-2
1.59109806306027e+15,-2,5,-6,-6,14,14,22,10
1.59109806306027e+15,0,-4,0,1,-14,-14,-16,-5
1.59109806308265e+15,-3,7,0,0,11,11,23,3
1.59109806308265e+15,10,-9,-5,-6,-16,-16,-29,-9
1.59109806308366e+15,2,2,7,-10,6,6,1,6
1.59109806308366e+15,-16,4,4,26,5,5,2,-5
1.59109806309631e+15,6,5,-2,-14,10,10,17,10
1.59109806309631e+15,4,-3,-11,-5,-10,-10,-5,-1
1.59109806310303e+15,-7,-0,3,2,1,1,-2,-1
1.59109806310303e+15,18,-0,5,1,-13,-13,-4,4
1.59109806311927e+15,-11,-6,11,9,-7,-7,-31,-15
1.59109806311927e+15,-3,-0,-25,-11,8,8,24,6
1.59109806312021e+15,20,3,3,2,-5,-5,-5,1
1.59109806312021e+15,-20,-5,-4,-4,-4,-4,2,-1
1.59109806314164e+15,5,-1,2,2,0,0,-14,-6
1.59109806314164e+15,2,-5,10,-4,-18,-18,-17,-6
1.59109806314329e+15,-29,-2,-2,10,6,6,-2,-2
1.59109806314329e+15,-4,-0,-12,-4,2,2,8,1
1.59109806315634e+15,1,-2,10,-12,-6,-6,-1,-2
1.59109806315634e+15,1,13,-7,20,24,24,25,3
1.59109806316289e+15,6,8,10,2,4,4,21,3
1.59109806316289e+15,-4,-17,-35,-24,-17,-17,-24,-8
1.59109806318656e+15,-5,-0,5,3,-8,-8,-8,6
1.59109806318656e+15,-2,-6,-15,-17,-5,-5,-2,3
1.59109806318758e+15,15,9,7,10,0,0,10,7
1.59109806318758e+15,-28,-1,-4,0,7,7,15,0
1.59109806320154e+15,-14,-3,1,8,0,0,1,-15
1.59109806320154e+15,0,-2,16,3,-10,-10,-17,-5
1.59109806320252e+15,-3,-0,-24,4,5,5,6,6
1.59109806320252e+15,19,-2,-10,-22,-1,-1,2,6
1.59109806321565e+15,-10,-5,-7,-3,-7,-7,-1,-4
1.59109806321565e+15,8,16,22,11,17,17,32,6
1.59109806322961e+15,11,-9,0,-11,-8,-8,-38,-14
1.59109806322961e+15,-2,2,22,11,-5,-5,-3,-15
1.5910980632387e+15,2,-9,-35,-11,-7,-7,-9,-1
1.5910980632387e+15,68,21,20,-1,6,6,15,26
1.59109806325308e+15,38,22,46,-7,12,12,23,31
1.59109806325308e+15,-101,-27,-12,5,-12,-12,-18,-44
1.59109806326202e+15,34,-0,-7,-2,-4,-4,-7,-27
1.59109806326202e+15,87,34,5,10,16,16,38,73
1.59109806326366e+15,10,-22,-61,-32,-15,-15,-29,-11
1.59109806326366e+15,-27,1,9,19,6,6,-5,-18
1.59109806327639e+15,65,6,-8,-28,5,5,6,6
1.59109806327639e+15,-78,-7,-4,37,2,2,14,-23
1.59109806328281e+15,35,3,16,13,-12,-12,-26,-13
1.59109806328281e+15,33,7,36,-3,-13,-13,-11,12
1.59109806329951e+15,-17,-0,-8,1,11,11,0,-5
1.59109806329951e+15,14,-7,-1,-13,-13,-13,-25,-1
1.59109806330051e+15,-37,-4,-5,9,1,1,-1,-4
1.59109806330051e+15,58,3,-22,-21,4,4,0,-3
1.591098063322e+15,-23,18,29,31,12,12,35,28
1.591098063322e+15,-33,-7,9,-1,0,0,-7,-16
1.591098063323e+15,10,5,-13,4,3,3,6,21
1.591098063323e+15,-22,-14,-22,-12,-6,-6,-14,-20
1.59109806333626e+15,-2,-11,-2,-5,-16,-16,-33,-20
1.59109806333626e+15,-24,-14,-14,-6,-5,-5,-21,-20
1.59109806334289e+15,14,-1,0,-16,-8,-8,5,3
1.59109806334289e+15,42,13,18,8,-1,-1,7,16
1.59109806335839e+15,47,14,-2,-3,3,3,12,34
1.59109806335839e+15,-13,-9,-27,-6,-6,-6,5,-13
1.59109806336066e+15,-57,-11,-9,-1,-3,-3,3,-21
1.59109806336066e+15,42,8,-7,-7,13,13,-2,17
1.59109806338188e+15,-22,-3,-5,0,0,0,16,-7
1.59109806338188e+15,-12,-8,3,17,-12,-12,-32,-17
1.59109806338288e+15,-51,-8,-2,-2,5,5,-1,-8
1.59109806338288e+15,17,5,17,4,-4,-4,-8,0
1.59109806339673e+15,-9,-9,-4,-22,-2,-2,-8,-16
1.59109806339673e+15,11,8,1,15,2,2,9,7
1.59109806341028e+15,20,6,-1,3,4,4,7,2
1.59109806341028e+15,-16,-6,-18,2,-5,-5,-7,-6
1.59109806341936e+15,-5,10,-1,6,19,19,30,24
1.59109806341936e+15,-5,-11,-5,-17,-6,-6,-23,-13
1.59109806342031e+15,-8,-6,-1,4,-6,-6,-12,-18
1.59109806342031e+15,4,9,19,11,-3,-3,4,12
1.59109806344184e+15,-7,5,0,12,3,3,7,5
1.59109806344184e+15,-18,-2,3,-9,7,7,9,-8
1.5910980634432e+15,9,-1,3,5,-8,-8,-8,-11
1.5910980634432e+15,6,5,7,1,6,6,7,8
1.59109806346312e+15,-14,-6,-10,-4,2,2,-8,-8
1.59109806346312e+15,-17,-10,-19,-19,-2,-2,2,-12
1.59109806347105e+15,-8,-1,-1,20,-3,-3,-5,-6
1.59109806347105e+15,11,-1,-8,-14,-8,-8,-1,14
1.59109806347903e+15,-8,-1,21,14,-10,-10,-15,-11
1.59109806347903e+15,7,3,2,-8,5,5,6,2
1.59109806348002e+15,9,3,7,-5,3,3,9,-4
1.59109806348002e+15,-17,-2,-12,-4,3,3,12,1
1.59109806350892e+15,1,-11,-13,-15,-14,-14,-23,-4
1.59109806350892e+15,0,-0,4,-7,-1,-1,5,2
1.59109806350993e+15,-6,-1,3,5,0,0,-10,-8
1.59109806350993e+15,-5,1,-2,10,2,2,-2,-10
1.59109806351566e+15,0,2,-3,-1,-3,-3,3,7
1.59109806351566e+15,-13,-0,3,-2,2,2,9,-2
1.59109806353124e+15,5,-1,-6,-10,-2,-2,1,4
1.59109806353124e+15,6,-1,-1,0,-5,-5,-7,-3
1.59109806353908e+15,-6,1,5,9,-1,-1,-1,1
1.59109806353908e+15,-1,-1,-7,-8,1,1,-3,0
1.59109806354013e+15,3,2,6,-10,1,1,5,3
1.59109806354013e+15,-1,-5,-9,-12,-6,-6,-6,-1
1.59109806356186e+15,-4,2,4,0,2,2,6,1
1.59109806356186e+15,-1,1,1,4,-2,-2,3,-3
1.59109806356263e+15,1,-1,-1,-2,0,0,-2,-1
1.59109806356263e+15,2,-1,2,1,-6,-6,-8,5
1.59109806357481e+15,-5,-3,-6,-3,-2,-2,-4,-4
1.59109806357481e+15,0,-0,1,-5,0,0,0,1
1.59109806358397e+15,2,2,3,-3,-1,-1,8,3
1.59109806358397e+15,0,7,2,13,10,10,5,0
1.59109806360665e+15,0,-2,-2,-2,-5,-5,-7,-3
1.59109806360665e+15,-4,-4,0,0,-7,-7,-11,-5
1.59109806360759e+15,2,4,2,6,2,2,5,1
1.59109806360759e+15,1,-3,-4,-7,-4,-4,-1,0
1.59109806362166e+15,-3,-4,-5,-11,-4,-4,0,-1
1.59109806362166e+15,2,-0,-2,3,-3,-3,3,0
1.59109806362269e+15,2,1,-5,-2,3,3,0,2
1.59109806362269e+15,-3,-1,-11,-3,0,0,9,4
1.59109806363541e+15,-5,2,10,-2,6,6,0,-6
1.59109806363541e+15,0,8,23,-3,6,6,22,5
1.59109806364397e+15,3,-8,-10,-5,-10,-10,-25,-7
1.59109806364397e+15,3,-2,-11,-3,-3,-3,-3,2
1.59109806365891e+15,0,-4,-2,4,-9,-9,-14,-2
1.59109806365891e+15,-3,-0,7,1,-2,-2,0,-5
1.59109806366091e+15,-2,4,10,0,3,3,10,0
1.59109806366091e+15,-2,3,14,-4,1,1,6,3
1.59109806368156e+15,-6,-2,-27,9,5,5,0,-2
1.59109806368156e+15,2,-2,-2,-10,1,1,-7,-4
1.59109806368811e+15,-3,2,6,0,0,0,6,0
1.59109806368811e+15,-3,-5,-1,-8,-9,-9,-6,-5
1.59109806369563e+15,0,1,-6,-1,3,3,3,5
1.59109806369563e+15,0,-3,-3,-6,-5,-5,-9,-2
1.59109806370352e+15,0,5,12,9,3,3,3,2
1.59109806370352e+15,-2,-6,-35,-4,1,1,0,-4
1.59109806371945e+15,-4,-7,-39,-3,-5,-5,-9,1
1.59109806371945e+15,1,4,62,1,-6,-6,-15,-5
1.59109806372045e+15,0,-3,20,0,-9,-9,-15,-11
1.59109806372045e+15,-5,2,10,6,-1,-1,-1,-3
1.59109806374188e+15,1,5,26,1,2,2,4,-2
1.59109806374188e+15,-2,-7,-52,-7,4,4,0,4
1.59109806374257e+15,2,1,0,-3,1,1,5,2
1.59109806374257e+15,-4,-6,-5,-26,0,0,1,-4
1.59109806376452e+15,2,1,-16,3,1,1,5,4
1.59109806376452e+15,1,1,-5,-9,0,0,1,3
1.59109806376616e+15,-5,-12,-20,-24,-7,-7,-14,-5
1.59109806376616e+15,1,-3,-7,2,-5,-5,-14,-5
1.59109806378705e+15,-2,-0,24,-2,-6,-6,-9,-7
1.59109806378705e+15,1,6,19,16,-2,-2,6,2
1.59109806378805e+15,4,8,8,14,8,8,11,7
1.59109806378805e+15,-5,-2,-13,3,1,1,-1,1
1.59109806380926e+15,-3,5,22,7,1,1,6,2
1.59109806380926e+15,0,-9,-34,0,-7,-7,-13,-6
1.59109806381027e+15,-5,3,0,10,5,5,9,1
1.59109806381027e+15,0,1,9,4,-2,-2,-5,-3
1.59109806381567e+15,1,1,-15,13,0,0,2,0
1.59109806381567e+15,1,8,35,12,4,4,3,1
1.59109806382389e+15,1,-10,-31,-19,-6,-6,-8,-3
1.59109806382389e+15,5,7,18,13,1,1,3,1
1.59109806383905e+15,1,-4,-13,-17,-2,-2,1,-2
1.59109806383905e+15,-1,-2,-9,-9,1,1,-1,2
1.59109806384007e+15,-4,-0,8,5,-4,-4,-4,-4
1.59109806384007e+15,-1,1,-5,2,3,3,1,2
1.59109806386194e+15,1,2,15,-1,-5,-5,2,1
1.59109806386194e+15,-6,-6,-14,12,-9,-9,-18,-10
1.591098063863e+15,2,3,3,-2,5,5,7,4
1.591098063863e+15,-2,-3,-9,-1,-4,-4,-7,-1
1.591098063875e+15,-2,6,20,7,3,3,5,0
1.591098063875e+15,1,-3,-34,1,2,2,3,0
1.59109806388394e+15,1,4,17,7,0,0,-2,-3
1.59109806388394e+15,2,3,3,-4,4,4,12,1
1.59109806389919e+15,-3,-4,-3,-13,-1,-1,3,-1
1.59109806389919e+15,-3,-7,-6,-8,-10,-10,-19,-8
1.59109806390019e+15,1,-0,-5,12,-4,-4,-3,1
1.59109806390019e+15,-2,-2,-1,-6,-3,-3,1,-2
1.59109806392253e+15,0,-0,3,-7,3,3,0,1
1.59109806392253e+15,-5,-0,-4,5,0,0,0,0
1.59109806392353e+15,-2,-3,-7,-9,3,3,4,-3
1.59109806392353e+15,0,4,15,13,-1,-1,-4,-2
1.59109806393485e+15,-1,-6,-15,-20,-4,-4,-1,-3
1.59109806393485e+15,-1,-2,-2,-8,-4,-4,7,-2
1.59109806394408e+15,0,-0,4,-4,-1,-1,-3,0
1.59109806394408e+15,-3,-3,-16,0,1,1,-4,-3
1.5910980639589e+15,-5,-3,-8,8,-4,-4,-10,-6
1.5910980639589e+15,2,5,11,-2,5,5,8,5
1.5910980639653e+15,0,-2,-8,-2,-1,-1,0,-1
1.5910980639653e+15,0,-3,3,-10,-4,-4,-4,-1
1.5910980639819e+15,2,3,8,4,0,0,-1,0
1.5910980639819e+15,-1,-3,-10,-8,-1,-1,2,-3
1.59109806398262e+15,-7,-3,-1,14,-9,-9,-15,-6
1.59109806398262e+15,-6,-5,0,-5,-8,-8,-7,-3
1.59109806400492e+15,5,2,2,-3,-2,-2,0,4
1.59109806400492e+15,-2,2,1,0,3,3,2,0
1.59109806401926e+15,-2,-1,-5,-5,1,1,2,-2
1.59109806401926e+15,-1,-4,2,-9,-5,-5,-8,-6
1.59109806402025e+15,0,-2,-10,4,-4,-4,-3,-2
1.59109806402025e+15,-1,-3,-1,-13,-1,-1,4,-2
1.59109806402555e+15,0,-0,-10,-4,2,2,-1,4
1.59109806402555e+15,-2,4,4,13,3,3,3,2
1.59109806404188e+15,0,1,4,5,2,2,-6,-3
1.59109806404188e+15,1,-2,1,-7,-3,-3,-3,1
1.59109806404292e+15,-2,1,4,2,-5,-5,4,-3
1.59109806404292e+15,-1,-0,-4,-5,1,1,7,1
1.59109806406484e+15,-4,-6,-3,-9,-5,-5,-11,-3
1.59109806406484e+15,-2,1,1,6,-1,-1,0,-2
1.59109806406584e+15,-4,-1,2,6,-3,-3,-6,-4
1.59109806406584e+15,1,-4,-21,-11,2,2,0,-2
1.59109806409415e+15,-1,1,6,-8,1,1,5,0
1.59109806409415e+15,-6,-1,6,1,-2,-2,-5,-3
1.59109806409561e+15,1,-2,-9,-10,-2,-2,5,4
1.59109806409561e+15,-1,-2,1,-3,-4,-4,-4,-2
1.59109806410127e+15,-1,3,0,14,-1,-1,3,0
1.59109806410127e+15,0,2,-5,-2,2,2,8,2
1.59109806410327e+15,1,1,3,-11,2,2,6,4
1.59109806410327e+15,-2,-4,3,-2,-9,-9,-11,-4
1.59109806412422e+15,1,5,6,12,1,1,4,2
1.59109806412422e+15,-1,-1,-7,5,-2,-2,-7,-2
1.59109806413121e+15,-1,-2,-2,-2,-2,-2,-6,-1
1.59109806413121e+15,-1,-0,3,10,-3,-3,-5,-2
1.59109806413818e+15,-2,-6,-3,-24,-3,-3,-2,-2
1.59109806413818e+15,1,7,7,25,2,2,2,1
1.59109806414563e+15,0,-2,-13,-12,0,0,4,0
1.59109806414563e+15,1,7,8,15,7,7,5,2
1.59109806416167e+15,-1,1,8,5,-1,-1,1,-2
1.59109806416167e+15,-1,-6,-10,-20,0,0,-2,-4
1.5910980641678e+15,1,2,0,4,0,0,2,7
1.5910980641678e+15,-1,-2,-1,1,-3,-3,-10,-3
1.59109806418393e+15,2,1,-9,2,3,3,4,1
1.59109806418393e+15,-1,-2,-1,-4,-4,-4,-6,-2
1.59109806418493e+15,-2,-3,2,-1,-7,-7,-5,-5
1.59109806418493e+15,1,-0,1,-10,1,1,4,1
1.5910980641986e+15,-2,-3,0,-9,-4,-4,-7,-5
1.5910980641986e+15,-1,-2,-2,-4,-4,-4,2,1
1.59109806420485e+15,-2,1,-1,6,1,1,1,-8
1.59109806420485e+15,-2,2,5,0,0,0,3,1
1.59109806422923e+15,-1,-2,-3,-12,0,0,-4,0
1.59109806422923e+15,-2,2,-3,6,4,4,2,-3
1.59109806423023e+15,-3,3,16,8,0,0,2,-4
1.59109806423023e+15,0,-3,-12,2,-6,-6,-3,-2
1.59109806424381e+15,0,-1,-10,5,1,1,-1,-1
1.59109806424381e+15,1,-11,-27,-21,-9,-9,-16,-2
1.59109806424585e+15,1,6,4,6,7,7,10,5
1.59109806424585e+15,-4,-6,6,-11,-10,-10,-15,-4
1.59109806425814e+15,-3,-1,3,0,-3,-3,-3,-2
1.59109806425814e+15,-1,4,7,8,4,4,3,1
1.59109806426566e+15,-2,-5,-6,-3,-5,-5,-12,-7
1.59109806426566e+15,3,5,2,2,7,7,12,0
1.59109806428165e+15,-3,1,8,-4,-3,-3,2,2
1.59109806428165e+15,-3,-4,-4,-7,-5,-5,-6,-1
1.59109806428266e+15,2,2,-6,12,0,0,0,3
1.59109806428266e+15,-1,1,-1,-5,3,3,2,1
1.5910980643047e+15,-2,-2,-13,-1,0,0,1,-2
1.5910980643047e+15,-1,2,3,0,1,1,3,-2
1.59109806430988e+15,-2,-8,-10,-18,-6,-6,-7,-7
1.59109806430988e+15,-3,1,8,8,-3,-3,-1,2
1.59109806431821e+15,2,2,0,2,2,2,4,-2
1.59109806431821e+15,2,-0,-3,-11,0,0,9,6
1.5910980643246e+15,-6,-7,-7,-11,-6,-6,-6,-4
1.5910980643246e+15,-1,4,4,19,2,2,1,-2
1.59109806434197e+15,-5,2,13,7,-1,-1,-8,-3
1.59109806434197e+15,0,3,10,4,3,3,9,-1
1.59109806434817e+15,-2,-13,-27,-30,-5,-5,-10,-8
1.59109806434817e+15,5,-2,-9,-10,-5,-5,-6,6
1.59109806436504e+15,3,-1,-4,2,-6,-6,-2,-1
1.59109806436504e+15,-1,2,19,8,-3,-3,-8,-4
1.59109806436605e+15,0,4,10,-2,2,2,7,0
1.59109806436605e+15,-6,-5,-13,-12,2,2,5,-5
1.5910980643789e+15,-2,-2,-4,-9,0,0,-3,-2
1.5910980643789e+15,0,-2,-2,3,-8,-8,-10,-3
1.59109806438481e+15,1,7,12,19,3,3,4,0
1.59109806438481e+15,-1,-3,-1,-7,-2,-2,-2,-2
1.59109806440132e+15,-6,-3,7,-6,-5,-5,-10,-4
1.59109806440132e+15,-2,-3,-20,-5,1,1,2,3
1.59109806440331e+15,-1,-1,-5,1,-2,-2,-3,0
1.59109806440331e+15,2,4,5,3,3,3,10,2
1.59109806442444e+15,-2,-3,-5,-16,1,1,-2,-3
1.59109806442444e+15,-1,-5,-6,3,-8,-8,-16,-11
1.59109806442545e+15,1,1,11,-2,-1,-1,-3,2
1.59109806442545e+15,-1,3,11,0,0,0,4,-2
1.59109806443868e+15,-4,-6,-17,-1,-7,-7,-6,-2
1.59109806443868e+15,-1,-2,-1,1,-5,-5,-5,1
1.59109806444576e+15,3,-0,-1,-4,-3,-3,0,0
1.59109806444576e+15,-2,-1,-2,-8,1,1,-1,-2
1.59109806446053e+15,0,8,11,23,5,5,4,2
1.59109806446053e+15,-4,3,1,4,5,5,9,-1
1.59109806446767e+15,-3,-7,-21,-17,-2,-2,-3,-2
1.59109806446767e+15,1,-3,-2,-2,-5,-5,-6,-2
1.59109806448455e+15,0,-3,-8,0,-4,-4,-1,-6
1.59109806448455e+15,3,3,8,-2,5,5,1,4
1.59109806448953e+15,-1,6,12,17,1,1,4,6
1.59109806448953e+15,-4,-8,-16,-1,-9,-9,-17,-6
1.59109806449751e+15,2,1,-2,3,-2,-2,0,6
1.59109806449751e+15,-4,-1,6,-6,-2,-2,1,-4
1.59109806450595e+15,1,3,-4,3,4,4,5,1
1.59109806450595e+15,-1,3,6,0,1,1,6,2
1.59109806452185e+15,-3,-6,-6,-5,-2,-2,-11,-11
1.59109806452185e+15,2,5,8,12,0,0,6,2
1.59109806452285e+15,0,-3,-5,-16,-4,-4,1,5
1.59109806452285e+15,1,-2,-6,0,-4,-4,-3,-3
1.59109806455199e+15,-4,-2,-1,-2,-2,-2,-5,-5
1.59109806455199e+15,0,-3,-7,-10,-1,-1,-1,-1
1.59109806455295e+15,-2,-3,-1,-3,-3,-3,-5,-5
1.59109806455295e+15,1,4,6,11,3,3,3,0
1.59109806455804e+15,-5,3,1,1,4,4,9,2
1.59109806455804e+15,-1,-2,-4,-10,0,0,3,1
1.5910980645735e+15,-1,-1,-3,12,-5,-5,-9,-3
1.5910980645735e+15,1,-2,3,-1,-2,-2,-18,-4
1.59109806458129e+15,5,-0,0,-4,-3,-3,3,3
1.59109806458129e+15,-8,-3,2,-4,-3,-3,-4,0
1.59109806458329e+15,-2,3,7,10,2,2,2,-6
1.59109806458329e+15,2,3,1,-9,7,7,12,5
1.59109806460453e+15,-7,-9,-10,-21,-8,-8,-10,-3
1.59109806460453e+15,-1,5,9,21,-1,-1,-1,2
1.59109806460554e+15,-2,-0,-8,2,0,0,2,0
1.59109806460554e+15,-2,2,-1,4,2,2,9,2
1.59109806461817e+15,3,-2,-1,-9,-2,-2,-9,-5
1.59109806461817e+15,-5,-6,-4,-7,-5,-5,-9,-5
1.59109806464266e+15,1,-6,-16,-26,-3,-3,4,2
1.59109806464266e+15,-8,-4,0,5,-8,-8,-16,-9
1.59109806464266e+15,3,6,2,5,5,5,10,7
1.59109806464266e+15,3,-0,2,-6,-1,-1,0,-2
1.59109806464407e+15,-4,-1,-2,-8,2,2,7,-2
1.59109806464407e+15,0,1,0,2,-3,-3,1,7
1.59109806467178e+15,0,-5,-6,2,-7,-7,-14,-6
1.59109806467178e+15,3,3,2,9,4,4,-5,-2
1.59109806468e+15,-2,-3,-6,-5,-1,-1,-6,-7
1.59109806468e+15,-2,-4,-14,-21,2,2,7,2
1.59109806468e+15,4,9,6,15,5,5,20,5
1.59109806468e+15,-3,-8,-10,-11,-5,-5,-19,-8
1.59109806468638e+15,-7,3,10,11,-1,-1,-2,-2
1.59109806468638e+15,-1,1,2,2,0,0,-1,1
1.59109806470167e+15,11,4,-7,-7,3,3,13,9
1.59109806470167e+15,-25,-3,-9,-3,3,3,7,-2
1.59109806470269e+15,-1,-0,8,4,-4,-4,-5,-3
1.59109806470269e+15,6,-1,-9,-7,0,0,3,-1
1.59109806472424e+15,2,-0,2,-3,-2,-2,-1,0
1.59109806472424e+15,2,-2,-1,1,-6,-6,-5,-5
1.5910980647258e+15,5,-0,9,0,-4,-4,-8,-6
1.5910980647258e+15,4,8,4,4,6,6,20,8
1.59109806473814e+15,-10,-9,3,2,-15,-15,-29,-13
1.59109806473814e+15,9,-1,-9,-12,-4,-4,1,6
1.59109806474633e+15,-15,4,1,19,6,6,1,1
1.59109806474633e+15,6,-2,0,-6,-1,-1,-7,-7
1.59109806476251e+15,-11,3,-4,2,8,8,13,3
1.59109806476251e+15,5,1,-1,-4,-1,-1,2,-1
1.59109806476351e+15,8,2,-1,3,0,0,0,5
1.59109806476351e+15,-3,-5,-1,-18,-4,-4,-6,-2
1.59109806478411e+15,-5,1,2,13,-2,-2,-6,-2
1.59109806478411e+15,1,1,0,3,-3,-3,4,0
1.59109806478512e+15,0,2,-4,-4,6,6,11,2
1.59109806478512e+15,-3,-4,-6,-6,-2,-2,-9,-5
1.59109806479756e+15,-18,-1,9,5,-2,-2,-1,-6
1.59109806479756e+15,4,-0,-5,1,1,1,-1,-5
1.59109806481302e+15,10,4,7,9,-5,-5,-5,3
1.59109806481302e+15,-2,-3,-5,-15,-1,-1,3,0
1.59109806482015e+15,7,3,3,9,0,0,-2,-7
1.59109806482015e+15,2,6,-4,-5,10,10,20,15
1.59109806483639e+15,7,-2,-3,-9,-5,-5,-3,-1
1.59109806483639e+15,-6,-5,0,-9,-6,-6,-11,-1
1.59109806484343e+15,4,3,2,0,3,3,4,5
1.59109806484343e+15,1,4,1,10,0,0,13,-3
1.59109806485868e+15,-16,-15,-15,-25,-10,-10,-28,-9
1.59109806485868e+15,-6,1,5,10,0,0,0,-5
1.59109806485868e+15,-3,-6,-9,-15,-3,-3,-2,-7
1.59109806485868e+15,3,1,-1,-8,5,5,4,2
1.59109806486604e+15,-1,3,7,-3,2,2,9,1
1.59109806486604e+15,-3,-0,-10,14,-5,-5,1,0
1.59109806489696e+15,5,-6,-1,-9,-8,-8,-19,-7
1.59109806489696e+15,3,1,9,3,-3,-3,-5,0
1.59109806489802e+15,-2,-4,-11,-9,0,0,-4,-3
1.59109806489802e+15,5,2,8,4,-6,-6,-4,1
1.59109806490395e+15,7,5,3,-5,7,7,18,4
1.59109806490395e+15,-9,-6,-4,-3,-4,-4,-15,-9
1.59109806490499e+15,2,-1,2,2,-1,-1,-11,1
1.59109806490499e+15,1,-0,-7,4,-4,-4,-1,0
1.59109806492602e+15,-3,1,-4,5,2,2,-2,3
1.59109806492602e+15,-5,-4,-1,-7,-4,-4,-4,-5
1.59109806492802e+15,-1,5,7,6,6,6,13,-1
1.59109806492802e+15,5,-0,3,-13,-1,-1,-3,6
1.5910980649419e+15,-13,-6,-6,-9,-2,-2,-2,-8
1.5910980649419e+15,6,-3,-5,5,-4,-4,-18,-5
1.59109806494315e+15,-3,-1,-3,-6,-2,-2,3,-1
1.59109806494315e+15,-3,4,5,14,3,3,7,-4
1.59109806496431e+15,-2,1,-2,0,-2,-2,7,3
1.59109806496431e+15,0,-4,-5,-11,-2,-2,-9,-3
1.5910980649703e+15,-2,-0,5,4,-2,-2,1,-2
1.5910980649703e+15,-5,-0,-3,-10,8,8,8,2
1.59109806498707e+15,2,2,2,8,-4,-4,-3,2
1.59109806498707e+15,-4,-2,-6,-5,-5,-5,3,5
1.59109806498807e+15,6,-2,-2,-1,-9,-9,-8,0
1.59109806498807e+15,-5,2,-3,8,4,4,4,-6
1.59109806500109e+15,-2,-1,-2,-2,0,0,-10,-3
1.59109806500109e+15,-3,-1,2,8,-4,-4,-7,-4
1.59109806500308e+15,-4,-2,-1,0,-1,-1,-4,-4
1.59109806500308e+15,0,1,1,4,-3,-3,2,-2
1.59109806502473e+15,1,-0,-1,-4,2,2,-1,1
1.59109806502473e+15,-4,-0,-1,-3,-3,-3,6,1
1.59109806502988e+15,1,-1,-3,-8,4,4,4,-1
1.59109806502988e+15,-5,-5,-7,9,-6,-6,-17,-9
1.59109806504635e+15,0,-1,2,-5,-3,-3,0,1
1.59109806504635e+15,-2,-0,2,-3,1,1,2,0
1.59109806504834e+15,-1,5,-1,9,4,4,11,5
1.59109806504834e+15,-4,-2,2,-10,-1,-1,-3,-3
1.59109806506035e+15,-1,-0,-2,-3,-1,-1,1,-1
1.59109806506035e+15,-2,-0,-2,-1,-2,-2,0,0
1.59109806506776e+15,-5,-2,-5,-6,2,2,1,1
1.59109806506776e+15,2,-2,-2,4,-8,-8,-12,-1
1.59109806508426e+15,3,3,0,2,3,3,6,4
1.59109806508426e+15,-4,-1,2,-1,-1,-1,2,-2
1.59109806508527e+15,0,-0,0,-5,1,1,1,-3
1.59109806508527e+15,-3,-0,3,2,-4,-4,-1,2
1.59109806510698e+15,-2,-3,-5,-9,-1,-1,-4,-1
1.59109806510698e+15,3,3,1,5,0,0,1,0
1.59109806510799e+15,-5,1,6,10,-3,-3,1,-3
1.59109806510799e+15,-1,-3,-8,-12,0,0,1,-3
1.59109806512936e+15,-1,-3,2,-9,-3,-3,-1,-2
1.59109806512936e+15,-1,2,0,2,4,4,2,-2
1.59109806513035e+15,0,-3,-8,-4,-4,-4,-8,0
1.59109806513035e+15,-8,-2,9,7,-4,-4,-14,-8
1.5910980651517e+15,-1,1,-3,0,-2,-2,5,2
1.5910980651517e+15,-5,-7,-7,-16,-3,-3,-6,-6
1.5910980651527e+15,4,-0,4,2,-2,-2,-7,-3
1.5910980651527e+15,1,1,2,1,0,0,0,1
1.59109806518227e+15,-2,-1,-1,-5,-2,-2,-2,0
1.59109806518227e+15,-2,3,0,11,0,0,5,4
1.59109806518327e+15,-4,2,0,9,1,1,1,-3
1.59109806518327e+15,-1,-3,-5,-9,-3,-3,-1,-2
1.59109806519711e+15,-1,1,-1,6,-2,-2,-1,1
1.59109806519711e+15,-2,-4,0,-11,-3,-3,-9,-4
1.59109806519811e+15,2,-0,0,-1,-4,-4,-2,0
1.59109806519811e+15,-1,-1,-4,-3,0,0,1,-3
1.591098065212e+15,-2,-0,-2,2,0,0,0,-4
1.591098065212e+15,3,3,-2,0,3,3,7,5
1.59109806521301e+15,2,-4,0,-2,-7,-7,-15,-4
1.59109806521301e+15,1,-0,1,-2,2,2,0,-1
1.59109806522686e+15,-3,-2,-3,-9,-1,-1,-1,-4
1.59109806522686e+15,2,3,2,6,3,3,0,3
1.59109806522787e+15,-1,1,-2,5,-1,-1,3,0
1.59109806522787e+15,2,1,-5,-2,1,1,9,5
1.59109806524106e+15,1,-4,-3,-5,-3,-3,-11,-8
1.59109806524106e+15,-4,-2,2,-1,-4,-4,-7,-5
1.59109806524759e+15,2,1,-2,-7,0,0,5,4
1.59109806524759e+15,-2,-2,-1,-6,-5,-5,2,2
1.59109806526436e+15,-2,6,0,12,8,8,8,4
1.59109806526436e+15,-1,-1,-6,-7,2,2,4,-2
1.59109806526573e+15,-2,-3,-5,-7,-3,-3,-4,-4
1.59109806526573e+15,-1,-3,1,-3,-3,-3,-8,-9
1.59109806528677e+15,0,-1,0,1,-4,-4,-8,1
1.59109806528677e+15,-2,-0,-1,2,0,0,0,-2
1.59109806528777e+15,-2,-5,-5,-13,-7,-7,-5,-3
1.59109806528777e+15,-1,3,3,4,-2,-2,5,1
1.59109806530025e+15,1,-0,-2,5,-2,-2,-6,-3
1.59109806530025e+15,2,1,-2,2,-1,-1,-1,5
1.5910980653157e+15,-4,1,0,1,3,3,4,-1
1.5910980653157e+15,1,-1,-3,-7,1,1,6,3
1.5910980653245e+15,-1,-0,3,2,-5,-5,-2,1
1.5910980653245e+15,-2,1,2,-1,6,6,3,-4
1.5910980653255e+15,0,-1,-7,1,0,0,-1,-5
1.5910980653255e+15,0,-2,-2,1,-3,-3,-9,-1
1.59109806534713e+15,1,-1,-2,-7,-4,-4,-1,0
1.59109806534713e+15,-1,-0,5,4,-2,-2,-3,-1
1.59109806534813e+15,0,-1,-8,-9,2,2,2,0
1.59109806534813e+15,-4,2,3,4,2,2,5,-1
1.59109806536087e+15,-1,-1,-2,-8,1,1,1,0
1.59109806536087e+15,-1,-1,-4,4,-5,-5,-6,-1
1.59109806536716e+15,-1,3,4,3,2,2,6,-1
1.59109806536716e+15,-1,1,0,14,-2,-2,-10,1
1.59109806538372e+15,-2,-2,1,-1,-4,-4,-5,-3
1.59109806538372e+15,-2,-4,-5,-8,-2,-2,-3,-4
1.59109806538576e+15,-4,1,3,0,3,3,4,-1
1.59109806538576e+15,-1,-3,-4,-8,-4,-4,-6,0
1.59109806540628e+15,0,-0,-7,-12,1,1,12,0
1.59109806540628e+15,-1,-5,2,3,-8,-8,-16,-6
1.59109806540832e+15,0,2,3,5,0,0,-2,-2
1.59109806540832e+15,-2,-1,-1,-2,0,0,-3,-4
1.59109806542936e+15,-1,-0,-1,1,2,2,-4,0
1.59109806542936e+15,0,1,-2,-6,-1,-1,12,1
1.59109806543027e+15,-2,-3,5,3,-8,-8,-8,-1
1.59109806543027e+15,-2,-0,-3,-1,5,5,2,-1
1.59109806545094e+15,1,3,1,9,2,2,4,2
1.59109806545094e+15,-4,-3,-6,-6,-2,-2,-4,-2
1.59109806545293e+15,-1,-2,2,-2,-3,-3,-5,-2
1.59109806545293e+15,0,2,2,-4,2,2,7,0
1.59109806547439e+15,-1,-4,-10,-7,-5,-5,-3,-5
1.59109806547439e+15,-2,1,0,-7,3,3,0,0
1.59109806547539e+15,-1,6,3,27,-1,-1,0,1
1.59109806547539e+15,0,-1,-2,-6,0,0,1,-2
1.59109806548035e+15,-3,-1,-1,-3,0,0,0,0
1.59109806548035e+15,-1,-2,-4,-2,-3,-3,-6,-3
1.59109806548933e+15,3,-0,-3,2,-5,-5,2,6
1.59109806548933e+15,2,-0,-6,-2,-3,-3,-1,0
1.59109806550384e+15,-1,-1,0,3,-2,-2,-7,-2
1.59109806550384e+15,-1,-1,-2,-4,1,1,2,-3
1.59109806550484e+15,1,2,2,-6,3,3,3,0
1.59109806550484e+15,-2,1,1,1,0,0,2,-2
1.59109806553436e+15,0,-3,-1,-5,-6,-6,-4,0
1.59109806553436e+15,2,-1,-5,-9,-1,-1,1,4
1.59109806553539e+15,-2,-0,0,7,0,0,-5,-3
1.59109806553539e+15,-2,-0,1,4,0,0,-2,-4
1.59109806554012e+15,0,-2,0,-2,0,0,-7,-5
1.59109806554012e+15,-2,1,3,3,-1,-1,1,-1
1.59109806554894e+15,-1,-2,-4,-16,3,3,4,-2
1.59109806554894e+15,-2,-0,1,7,-1,-1,-2,-1
1.59109806556477e+15,-1,2,-1,-2,1,1,7,2
1.59109806556477e+15,2,-2,-2,4,-6,-6,-7,-1
1.59109806556603e+15,-2,-7,-8,-9,-10,-10,-9,-2
1.59109806556603e+15,-1,-0,2,-3,1,1,0,-2
1.59109806558703e+15,0,-3,-6,-8,-6,-6,-5,1
1.59109806558703e+15,1,2,2,1,4,4,3,-1
1.59109806558776e+15,-2,-1,-4,-10,0,0,3,2
1.59109806558776e+15,-1,1,3,5,-1,-1,2,0
1.59109806560902e+15,-1,2,-2,4,1,1,3,-1
1.59109806560902e+15,1,2,2,2,0,0,1,3
1.59109806561002e+15,0,-0,2,2,2,2,-6,-4
1.59109806561002e+15,0,-3,-2,-14,-4,-4,-2,0
1.59109806562412e+15,-2,6,6,16,4,4,7,0
1.59109806562412e+15,-3,-2,-1,-3,-4,-4,-2,-2
1.59109806562511e+15,-2,-1,-2,1,-1,-1,0,-3
1.59109806562511e+15,-1,-5,-7,-11,-2,-2,-12,-4
1.59109806564699e+15,0,-0,6,7,-3,-3,-3,2
1.59109806564699e+15,2,-1,-5,-5,-2,-2,-1,1
1.59109806564804e+15,1,3,3,3,3,3,1,-1
1.59109806564804e+15,-1,-1,-2,-6,2,2,4,0
1.59109806566045e+15,-1,-3,-4,-6,-2,-2,-6,-2
1.59109806566045e+15,-5,-1,0,2,-1,-1,0,-1
1.59109806566891e+15,0,-0,1,-1,-5,-5,3,0
1.59109806566891e+15,0,1,-1,4,-1,-1,0,0
1.5910980656843e+15,0,-0,-1,-2,0,0,3,1
1.5910980656843e+15,-1,-2,-1,-4,1,1,-7,-5
1.59109806569029e+15,-1,-2,-5,-9,-1,-1,-1,3
1.59109806569029e+15,1,3,6,12,-2,-2,3,1
1.59109806570673e+15,-1,-5,-10,-8,-3,-3,-7,-5
1.59109806570673e+15,1,-1,0,-3,-3,-3,-3,0
1.59109806571386e+15,-2,-2,-6,-7,0,0,1,-2
1.59109806571386e+15,-3,-1,6,3,-4,-4,-4,-3
1.59109806572963e+15,-2,-4,-6,-10,-2,-2,-4,-2
1.59109806572963e+15,1,3,1,8,3,3,4,0
1.59109806573062e+15,-1,-2,-3,-5,0,0,0,1
1.59109806573062e+15,1,-0,-4,-1,-1,-1,3,2
1.59109806575104e+15,-2,-1,2,-1,0,0,-5,-7
1.59109806575104e+15,-1,-0,3,3,2,2,-5,-3
1.59109806575298e+15,-2,-2,-4,-7,-1,-1,-1,0
1.59109806575298e+15,0,-4,-2,1,-7,-7,-14,-3
1.59109806576603e+15,-1,-2,1,-11,0,0,1,0
1.59109806576603e+15,2,4,-1,16,1,1,4,0
1.59109806576808e+15,0,1,-1,2,4,4,-1,-2
1.59109806576808e+15,0,2,0,0,3,3,7,3
1.59109806578054e+15,-6,-3,-3,-3,-2,-2,-3,-6
1.59109806578054e+15,-1,-3,1,-1,-7,-7,-5,-1
1.59109806578945e+15,0,-2,-4,-11,0,0,1,0
1.59109806578945e+15,-4,-3,-4,1,-3,-3,-4,-5
1.59109806580452e+15,3,-0,-2,2,1,1,-2,-2
1.59109806580452e+15,-5,-5,-6,-12,-3,-3,-4,-3
1.591098065805e+15,-3,-0,3,7,-3,-3,-4,-1
1.591098065805e+15,-1,-1,-3,-6,-2,-2,3,2
1.59109806583413e+15,-1,1,2,2,-1,-1,4,1
1.59109806583413e+15,-1,-3,-5,-8,-4,-4,0,-4
1.59109806583513e+15,-4,-5,-5,1,-5,-5,-16,-8
1.59109806583513e+15,-1,-1,0,-3,2,2,-1,-2
1.59109806584943e+15,-2,2,3,3,0,0,4,-1
1.59109806584943e+15,0,1,-2,-1,2,2,2,-1
1.59109806585043e+15,0,2,5,1,3,3,4,-2
1.59109806585043e+15,1,-2,-9,-12,1,1,-1,2
1.59109806586447e+15,0,-1,-2,-1,-3,-3,-1,0
1.59109806586447e+15,-3,3,2,5,2,2,3,1
1.59109806586547e+15,-1,-1,0,-2,-4,-4,-4,-2
1.59109806586547e+15,-5,-1,2,5,-1,-1,-7,-4
1.59109806588708e+15,2,-0,-1,-2,-3,-3,1,3
1.59109806588708e+15,2,1,0,3,-2,-2,-1,0
1.59109806588813e+15,0,3,-1,6,5,5,4,-1
1.59109806588813e+15,1,-3,-2,-9,-5,-5,-7,-3
1.59109806590919e+15,-1,3,5,8,1,1,5,-1
1.59109806590919e+15,-3,-4,-5,-8,-3,-3,-3,-3
1.5910980659102e+15,-2,-2,-5,-5,-4,-4,-5,-2
1.5910980659102e+15,-2,-0,4,-1,2,2,-2,-5
1.59109806592441e+15,2,3,-3,1,1,1,4,9
1.59109806592441e+15,-5,-2,0,-3,-1,-1,-4,0
1.59109806592569e+15,2,1,0,2,0,0,-3,-2
1.59109806592569e+15,-7,-3,-3,-6,-3,-3,4,-2
1.5910980659468e+15,0,1,2,0,4,4,-5,-1
1.5910980659468e+15,-1,-1,-4,-2,-5,-5,1,2
1.59109806594781e+15,-1,-3,0,3,-5,-5,-11,-3
1.59109806594781e+15,-1,1,1,8,-5,-5,0,-1
1.59109806596847e+15,-1,-0,-2,-4,2,2,-1,1
1.59109806596847e+15,2,-1,0,-1,-1,-1,-2,-3
1.59109806597051e+15,-2,-3,-2,-9,-2,-2,-1,-1
1.59109806597051e+15,1,-0,-5,-4,2,2,1,-1
1.59109806598354e+15,0,-1,1,7,-5,-5,-5,-4
1.59109806598354e+15,1,-2,-2,-11,1,1,2,-2
1.59109806599011e+15,-3,1,-1,8,-5,-5,0,0
1.59109806599011e+15,0,-0,-3,-3,1,1,-1,0
1.59109806601475e+15,-2,-3,0,-1,-4,-4,-3,-4
1.59109806601475e+15,-2,-0,-2,3,0,0,-2,-4
1.59109806601575e+15,0,2,-2,1,2,2,7,3
1.59109806601575e+15,3,-0,-2,-2,0,0,2,5
1.59109806602951e+15,-4,-0,-1,3,1,1,1,-2
1.59109806602951e+15,0,-1,-1,6,-1,-1,-10,-4
1.59109806603027e+15,-5,-4,-3,-5,-6,-6,-3,-3
1.59109806603027e+15,-3,-0,2,-1,0,0,0,-2
1.5910980660438e+15,-1,-3,-2,-6,-4,-4,-4,-3
1.5910980660438e+15,-1,-0,-3,-3,0,0,3,0
1.59109806604997e+15,0,-0,1,1,-4,-4,-4,1
1.59109806604997e+15,0,2,3,0,4,4,6,3
1.59109806607424e+15,-5,-4,-5,-7,-4,-4,-8,-5
1.59109806607424e+15,-2,-2,-4,-8,0,0,-3,-1
1.59109806607565e+15,0,4,10,10,3,3,7,0
1.59109806607565e+15,-1,-2,-2,-2,-5,-5,-4,-3
1.59109806608842e+15,-2,-2,-4,-3,-2,-2,-1,-3
1.59109806608842e+15,-1,-0,2,-3,0,0,-3,1
1.59109806609047e+15,1,1,-1,-5,1,1,7,3
1.59109806609047e+15,-2,-0,-6,3,0,0,-3,-3
1.59109806610372e+15,0,-0,-1,-3,-1,-1,5,1
1.59109806610372e+15,-3,-0,-1,0,-2,-2,5,1
1.59109806611032e+15,-1,-3,-2,-7,1,1,-8,-3
1.59109806611032e+15,-1,-2,-2,1,-1,-1,-11,-4
1.59109806612646e+15,-1,-2,0,-1,-6,-6,-9,1
1.59109806612646e+15,-1,1,-1,-4,1,1,3,1
1.59109806612746e+15,1,-0,1,-2,-1,-1,-2,-1
1.59109806612746e+15,-4,-3,-5,-3,-4,-4,1,-1
1.59109806614898e+15,2,2,0,2,3,3,3,0
1.59109806614898e+15,1,-1,2,-6,-3,-3,-4,-1
1.59109806615098e+15,-3,1,0,11,-3,-3,-3,-4
1.59109806615098e+15,0,1,-2,-3,5,5,1,-2
1.59109806616372e+15,1,-1,3,1,-5,-5,-8,-3
1.59109806616372e+15,0,-2,-3,-7,-1,-1,2,0
1.59109806616971e+15,-3,-0,0,-3,3,3,-1,-5
1.59109806616971e+15,-2,1,2,5,-3,-3,2,1
1.59109806618709e+15,-1,-0,-1,4,-1,-1,-2,-3
1.59109806618709e+15,-2,2,1,7,0,0,-1,0
1.5910980661881e+15,0,-2,0,-9,-8,-8,-2,1
1.5910980661881e+15,-4,-0,-6,3,3,3,3,-4
1.59109806620949e+15,3,-2,-2,-8,-2,-2,-1,1
1.59109806620949e+15,-1,-4,-5,1,-4,-4,-17,-8
1.59109806621027e+15,2,2,2,1,3,3,5,1
1.59109806621027e+15,0,-2,2,-6,-3,-3,-2,-2
1.59109806622389e+15,-6,-1,-4,-3,1,1,3,-1
1.59109806622389e+15,0,-2,-4,-7,-2,-2,-1,-3
1.59109806623814e+15,-1,1,-4,5,0,0,3,1
1.59109806623814e+15,1,-0,1,-3,0,0,-5,-1
1.59109806625426e+15,-3,2,2,2,4,4,4,2
1.59109806625426e+15,-3,-4,-2,-6,-5,-5,-6,-5
1.59109806625527e+15,0,3,2,-1,4,4,5,1
1.59109806625527e+15,-2,-0,-3,4,-3,-3,-3,1
1.59109806626888e+15,0,-0,-1,-1,-2,-2,-1,0
1.59109806626888e+15,0,1,-1,-2,-1,-1,5,1
1.59109806627087e+15,-1,-1,-2,-4,1,1,0,-2
1.59109806627087e+15,-3,-2,-5,-3,-4,-4,-1,-4
1.59109806628362e+15,-3,-6,-3,-5,-8,-8,-13,-8
1.59109806628362e+15,1,5,3,9,6,6,6,2
1.59109806629019e+15,0,-1,-2,0,-6,-6,0,0
1.59109806629019e+15,0,-0,-3,-8,1,1,4,1
1.59109806630744e+15,-2,-1,2,2,-1,-1,-3,-4
1.59109806630744e+15,0,3,0,5,1,1,0,2
1.5910980663085e+15,-4,-4,-1,2,-5,-5,-11,-4
1.5910980663085e+15,0,-2,1,-9,-2,-2,-6,0
1.59109806633675e+15,0,1,-5,3,3,3,2,-3
1.59109806633675e+15,1,1,2,2,-3,-3,6,2
1.59109806633776e+15,-2,-0,-6,8,0,0,-1,-3
1.59109806633776e+15,0,1,1,2,-2,-2,2,3
1.59109806634296e+15,0,-2,-2,-7,4,4,-4,-4
1.59109806634296e+15,-7,-3,1,7,-5,-5,-11,-7
1.59109806635095e+15,1,1,1,-2,0,0,4,3
1.59109806635095e+15,-5,-2,-6,-4,0,0,0,-1
1.59109806636574e+15,0,2,3,2,-1,-1,2,0
1.59109806636574e+15,1,-0,-1,-4,0,0,1,0
1.59109806636775e+15,-1,-3,-4,-9,-5,-5,-4,-3
1.59109806636775e+15,0,2,1,2,4,4,3,-1
1.59109806638904e+15,0,-1,-2,-6,-1,-1,-2,0
1.59109806638904e+15,1,-2,-2,-2,-4,-4,-5,0
1.59109806639118e+15,1,-1,-3,-7,-4,-4,-1,3
1.59109806639118e+15,0,-1,1,-8,0,0,0,-2
1.59109806640299e+15,-1,6,5,11,5,5,14,4
1.59109806640299e+15,-3,-8,-14,-22,-2,-2,-10,-5
1.59109806641122e+15,-5,-5,-8,2,-9,-9,-9,-8
1.59109806641122e+15,0,1,3,5,-2,-2,-4,-2
1.59109806642605e+15,-4,-2,1,-3,-4,-4,-5,-2
1.59109806642605e+15,0,6,7,13,5,5,7,1
1.591098066428e+15,-2,-1,-5,-12,3,3,5,0
1.591098066428e+15,0,-0,-2,1,-1,-1,-1,-2
1.59109806645679e+15,-3,-2,-4,-8,0,0,0,4
1.59109806645679e+15,-5,1,0,5,0,0,5,-2
1.59109806645779e+15,2,-5,-1,-5,-10,-10,-17,-4
1.59109806645779e+15,0,1,1,-5,3,3,10,4
1.59109806646334e+15,5,1,-2,5,-1,-1,-1,0
1.59109806646334e+15,-2,1,-4,-5,4,4,9,2
1.59109806647131e+15,-1,2,3,5,1,1,2,-1
1.59109806647131e+15,-1,-1,-6,-3,4,4,-6,1
1.59109806649366e+15,-1,-0,3,7,-4,-4,-1,-2
1.59109806649366e+15,1,-0,6,-6,1,1,3,-1
1.59109806649566e+15,-5,-14,-3,-7,-27,-27,-32,-17
1.59109806649566e+15,-6,-2,-3,-8,16,16,2,-7
1.59109806651572e+15,-2,1,-11,-17,11,11,14,8
1.59109806651572e+15,8,3,4,22,-11,-11,-16,4
1.59109806652391e+15,5,4,-1,0,6,6,7,12
1.59109806652391e+15,-7,-6,-3,3,-24,-24,-9,1
1.59109806653901e+15,-4,-2,1,0,8,8,-5,-13
1.59109806653901e+15,-3,2,-11,7,1,1,18,9
1.59109806654025e+15,10,-12,-5,-10,-4,-4,-36,-22
1.59109806654025e+15,0,5,18,-12,6,6,18,6
1.59109806654678e+15,-1,5,6,-4,-3,-3,3,2
1.59109806654678e+15,19,-2,-10,8,-12,-12,-21,3
1.59109806654782e+15,-2,20,-2,13,30,30,35,25
1.59109806654782e+15,0,-6,-7,-1,2,2,-17,-17
1.59109806656922e+15,10,9,3,-24,39,39,28,17
1.59109806656922e+15,-8,-5,11,38,-10,-10,-43,-32
1.59109806657023e+15,-1,-3,-18,7,-6,-6,5,5
1.59109806657023e+15,11,-3,-8,-52,-8,-8,21,15
1.59109806658265e+15,-11,-23,-2,-54,-4,-4,-46,-33
1.59109806658265e+15,4,-14,5,-37,-22,-22,-29,6
1.5910980665916e+15,-17,11,16,58,-8,-8,-2,-4
1.5910980665916e+15,4,28,11,60,48,48,38,1
1.591098066606e+15,7,9,6,23,-3,-3,47,-3
1.591098066606e+15,-14,-15,-16,-8,2,2,-9,-27
1.59109806661319e+15,6,-25,-11,-102,-38,-38,-9,8
1.59109806661319e+15,43,26,32,45,-33,-33,-5,18
1.5910980666284e+15,-38,22,15,36,83,83,6,5
1.5910980666284e+15,-17,-56,-66,-18,-82,-82,-83,-57
1.59109806663089e+15,-24,15,17,48,96,96,42,-25
1.59109806663089e+15,-19,-10,-25,-23,-18,-18,18,8
1.59109806664325e+15,53,10,4,-29,-9,-9,10,18
1.59109806664325e+15,-34,37,25,40,58,58,70,22
1.59109806665796e+15,13,8,15,-3,-6,-6,15,-4
1.59109806665796e+15,28,1,20,42,-8,-8,-33,-28
1.59109806666644e+15,-35,-27,-25,-48,-41,-41,-3,-30
1.59109806666644e+15,-18,-10,-7,-55,9,9,2,26
1.59109806667378e+15,3,-5,7,-21,-24,-24,-8,-8
1.59109806667378e+15,-3,12,24,92,4,4,-17,-14
1.59109806668892e+15,41,14,8,112,-28,-28,-19,-38
1.59109806668892e+15,-18,-15,-16,-33,-3,-3,-14,-38
1.59109806669092e+15,-35,-7,-12,-21,10,10,3,20
1.59109806669092e+15,-23,-49,-34,-108,-47,-47,-66,-42
1.59109806670314e+15,4,1,-19,-20,2,2,-2,22
1.59109806670314e+15,52,49,31,97,53,53,48,-8
1.59109806671155e+15,-7,-10,-22,13,-28,-28,15,-30
1.59109806671155e+15,-6,-14,-23,-5,42,42,-57,-75
1.59109806672618e+15,-50,-49,9,-59,-90,-90,-66,-19
1.59109806672618e+15,-12,-2,10,-25,30,30,-32,42
1.59109806673256e+15,63,6,-8,43,-63,-63,-23,52
1.59109806673256e+15,-25,4,-7,-83,17,17,60,67
1.59109806674893e+15,22,13,-8,-40,30,30,4,24
1.59109806674893e+15,69,51,35,68,25,25,63,38
1.59109806675093e+15,-63,-4,8,38,8,8,-12,-24
1.59109806675093e+15,38,4,-17,-26,3,3,11,38
1.59109806677201e+15,-86,-34,-5,-37,-6,-6,-65,-38
1.59109806677201e+15,-1,9,12,26,-33,-33,38,31
1.59109806677302e+15,32,-17,-4,-42,-28,-28,-60,15
1.59109806677302e+15,-22,3,-29,22,-3,-3,35,27
1.59109806679452e+15,-3,2,-22,-19,-4,-4,42,29
1.59109806679452e+15,-3,16,34,10,49,49,30,-22
1.59109806679553e+15,-22,-4,-42,-23,14,14,35,-22
1.59109806679553e+15,-4,-21,16,-18,-28,-28,-72,-53
1.59109806680922e+15,109,17,-8,34,12,12,-22,26
1.59109806680922e+15,-66,-21,-55,-74,-8,-8,21,19
1.59109806681023e+15,75,43,2,56,30,30,60,58
1.59109806681023e+15,41,26,48,82,-24,-24,-42,33
1.59109806683864e+15,-14,-0,2,34,-8,-8,48,-30
1.59109806683864e+15,22,-0,-29,10,-12,-12,-17,2
1.59109806684073e+15,58,27,34,-22,51,51,23,-21
1.59109806684073e+15,-58,-39,-40,-47,-21,-21,-23,-39
1.59109806686199e+15,21,13,15,58,-2,-2,-21,-9
1.59109806686199e+15,-1,-46,-10,-101,-64,-64,-53,-20
1.59109806686304e+15,-28,17,27,-8,29,29,64,12
1.59109806686304e+15,51,26,-4,37,28,28,32,11
1.59109806686915e+15,38,14,37,-14,1,1,7,31
1.59109806686915e+15,5,-2,-29,4,-4,-4,-3,-1
1.59109806687015e+15,-12,-41,-11,-100,-12,-12,-38,-52
1.59109806687015e+15,27,7,-37,19,2,2,42,0
1.59109806689182e+15,33,-5,-14,-40,-2,-2,-21,-9
1.59109806689182e+15,64,25,30,59,32,32,-11,-33
1.59109806689282e+15,-8,23,22,4,5,5,31,87
1.59109806689282e+15,-18,14,54,-6,19,19,38,22
1.59109806690612e+15,-21,-32,-58,12,-69,-69,-43,-13
1.59109806690612e+15,2,-1,15,-43,3,3,3,10
1.59109806691441e+15,-21,2,-9,45,17,17,-17,-48
1.59109806691441e+15,53,14,7,-7,10,10,4,22
1.5910980669295e+15,-112,-24,-11,-23,5,5,24,-21
1.5910980669295e+15,71,-1,28,58,-35,-35,-58,-53
1.5910980669312e+15,74,-11,-40,-32,-38,-38,-57,50
1.5910980669312e+15,-27,13,22,33,26,26,4,-9
1.59109806695101e+15,-1,5,-4,13,-12,-12,27,-1
1.59109806695101e+15,-91,-3,-29,-7,3,3,64,38
1.59109806695301e+15,40,23,47,68,13,13,-21,-18
1.59109806695301e+15,-25,-13,-29,-37,-6,-6,28,21
1.59109806696571e+15,35,-4,6,-2,-16,-16,-59,-14
1.59109806696571e+15,-19,-15,-2,-20,-45,-45,-11,24
1.59109806697386e+15,3,-5,-32,20,-1,-1,-20,-30
1.59109806697386e+15,-25,8,0,-23,24,24,41,21
1.59109806698892e+15,44,22,14,36,7,7,47,15
1.59109806698892e+15,47,8,29,1,13,13,-45,3
1.59109806698997e+15,17,-21,-1,-16,-20,-20,-63,-63
1.59109806698997e+15,-38,-15,-18,-19,-29,-29,16,2
1.59109806701199e+15,-81,-15,-27,-32,20,20,34,-15
1.59109806701199e+15,61,20,23,17,9,9,4,19
1.59109806701301e+15,-80,-40,-29,-40,-34,-34,-45,-35
1.59109806701301e+15,46,6,-4,-2,-3,-3,-2,-8
1.59109806702543e+15,31,31,46,57,33,33,10,15
1.59109806702543e+15,-24,3,11,-26,10,10,24,-3
1.5910980670344e+15,4,30,24,96,46,46,18,-38
1.5910980670344e+15,50,-2,-1,-19,-15,-15,-68,21
1.59109806704844e+15,-33,-0,-16,-30,1,1,76,22
1.59109806704844e+15,-32,-32,-27,-25,-45,-45,-47,-4
1.59109806705044e+15,-14,-26,-15,-85,-26,-26,-14,17
1.59109806705044e+15,-15,-7,12,13,11,11,-29,-59
1.59109806707177e+15,40,10,8,-13,52,52,-24,-27
1.59109806707177e+15,5,21,17,66,4,4,40,-1
1.59109806707375e+15,16,17,12,32,11,11,10,13
1.59109806707375e+15,-11,-17,-15,-20,-1,-1,-44,-32
1.5910980670948e+15,-40,-34,-10,-22,-78,-78,-67,-2
1.5910980670948e+15,48,14,-14,-22,18,18,15,36
1.59109806709991e+15,64,24,10,14,7,7,18,34
1.59109806709991e+15,-83,-6,-7,29,24,24,45,-78
1.5910980671168e+15,108,26,24,-41,34,34,28,12
1.5910980671168e+15,41,10,-9,24,7,7,8,-13
1.5910980671178e+15,3,1,9,-37,10,10,16,14
1.5910980671178e+15,19,3,-5,12,-73,-73,35,91
1.59109806713896e+15,9,-15,-1,-15,-31,-31,-65,6
1.59109806713896e+15,2,10,7,-9,45,45,1,-5
1.59109806713997e+15,-45,3,-6,12,31,31,55,-41
1.59109806713997e+15,53,-19,-9,-38,-61,-61,-54,16
1.59109806714503e+15,65,25,13,12,1,1,34,66
1.59109806714503e+15,-83,-37,-6,9,10,10,-97,-100
1.59109806715389e+15,-22,-0,-17,-17,-6,-6,48,19
1.59109806715389e+15,-15,18,1,32,30,30,46,11
1.59109806716927e+15,38,25,12,53,11,11,27,2
1.59109806716927e+15,3,1,2,-14,38,38,-13,-37
1.59109806717027e+15,-27,-49,-22,-37,-64,-64,-128,-30
1.59109806717027e+15,-1,24,-11,3,20,20,103,62
1.59109806719209e+15,63,-12,2,9,-31,-31,-86,-39
1.59109806719209e+15,-34,3,-10,-26,-16,-16,84,21
1.5910980671932e+15,-111,-68,-33,-21,-54,-54,-112,-97
1.5910980671932e+15,104,58,38,17,59,59,78,89
1.59109806720528e+15,31,-15,-11,25,-13,-13,-80,-96
1.59109806720528e+15,110,60,5,-4,65,65,98,114
1.59109806721401e+15,62,-26,3,-7,-83,-83,-82,-39
1.59109806721401e+15,-128,-54,-9,-24,-5,-5,-87,-106
1.59109806722922e+15,-21,18,-7,-11,47,47,79,56
1.59109806722922e+15,64,18,32,31,49,49,-118,1
1.5910980672361e+15,53,34,-5,-6,2,2,127,68
1.5910980672361e+15,23,-29,-1,-5,-34,-34,-99,-84
1.59109806725298e+15,-25,-4,14,7,-41,-41,-14,52
1.59109806725298e+15,-49,-47,-43,-27,-88,-88,-59,-25
1.5910980672539e+15,30,35,45,38,104,104,-34,-14
1.5910980672539e+15,-7,23,-13,-2,53,53,49,56
1.59109806726552e+15,-55,-23,-18,3,-20,-20,-92,13
1.59109806726552e+15,49,-7,18,-8,-23,-23,-44,-21
1.59109806728189e+15,-115,-39,-31,-36,-91,-91,49,10
1.59109806728189e+15,107,16,36,19,-2,-2,-23,-41
1.59109806728945e+15,7,-9,-15,11,-6,-6,-58,-30
1.59109806728945e+15,63,44,27,38,69,69,55,11
1.59109806729039e+15,-72,23,-22,-10,76,76,127,50
1.59109806729039e+15,74,-38,-24,-23,-76,-76,-121,-67
1.59109806731164e+15,-95,-29,4,-12,-3,-3,-82,-9
1.59109806731164e+15,31,-15,-51,-28,-43,-43,56,-48
1.59109806731264e+15,29,13,-2,2,17,17,37,2
1.59109806731264e+15,-16,-5,1,3,-1,-1,-28,-14
1.5910980673255e+15,36,28,-13,-5,47,47,115,15
1.5910980673255e+15,-25,-20,10,-18,-36,-36,-62,25
1.59109806733359e+15,38,15,32,33,43,43,-102,6
1.59109806733359e+15,-101,-50,-56,-42,-32,-32,-86,-13
1.59109806735002e+15,29,-25,-7,-1,-63,-63,-51,-66
1.59109806735002e+15,-8,10,21,9,53,53,-21,6
1.59109806735102e+15,61,45,-28,-24,74,74,108,127
1.59109806735102e+15,-87,-29,-13,-50,-54,-54,17,17
1.59109806737074e+15,88,20,28,49,-7,-7,-51,8
1.59109806737074e+15,17,-4,-25,-24,-41,-41,40,19
1.5910980673785e+15,-51,-46,-6,11,-41,-41,-105,-128
1.5910980673785e+15,127,69,38,61,78,78,73,60
1.59109806739378e+15,-23,-2,-32,-43,17,17,68,17
1.59109806739378e+15,65,6,-10,-18,-27,-27,20,34
1.59109806739548e+15,43,5,28,31,-17,-17,-62,-8
1.59109806739548e+15,66,22,55,6,22,22,-22,14
1.59109806741605e+15,1,-16,33,-23,-32,-32,-72,-27
1.59109806741605e+15,93,30,-9,10,27,27,28,49
1.591098067418e+15,28,-14,-54,-13,-14,-14,-12,-32
1.591098067418e+15,78,44,33,8,67,67,39,56
1.59109806743196e+15,101,2,-9,-6,-43,-43,-58,60
1.59109806743196e+15,-128,-80,-112,-81,-60,-60,-58,-73
1.59109806743296e+15,103,-6,13,-83,-34,-34,-45,17
1.59109806743296e+15,72,23,77,121,-27,-27,-128,-26
1.59109806744557e+15,-30,49,6,42,117,117,127,38
1.59109806744557e+15,-33,-22,20,-22,-10,-10,-88,-16
1.59109806745368e+15,97,39,-41,108,9,9,27,63
1.59109806745368e+15,2,-31,-9,-55,-29,-29,-75,-47
1.59109806746775e+15,-87,-36,-16,-26,9,9,-33,-94
1.59109806746775e+15,27,21,23,88,-8,-8,9,-14
1.59109806747659e+15,50,25,60,-4,12,12,14,53
1.59109806747659e+15,80,-2,-19,-35,-5,-5,19,-15
1.59109806749105e+15,76,12,-84,-23,12,12,100,-8
1.59109806749105e+15,-67,-63,-6,-128,-23,-23,-86,-92
1.59109806749305e+15,-26,-12,12,68,-42,-42,-121,-34
1.59109806749305e+15,-5,22,5,91,4,4,19,14
1.59109806750548e+15,-32,18,18,19,11,11,75,49
1.59109806750548e+15,32,8,19,-14,30,30,38,-3
1.59109806751392e+15,-27,5,-17,-69,42,42,69,25
1.59109806751392e+15,-84,-8,-49,42,-18,-18,20,54
1.5910980675294e+15,64,1,31,1,-7,-7,-93,-32
1.5910980675294e+15,11,30,40,47,0,0,0,37
1.59109806753125e+15,64,28,44,73,36,36,47,-60
1.59109806753125e+15,-11,-25,-60,-10,-26,-26,-26,-32
1.59109806755197e+15,69,24,60,74,-11,-11,-31,26
1.59109806755197e+15,-21,-15,-39,-54,-8,-8,19,8
1.59109806755297e+15,17,20,31,-11,11,11,44,51
1.59109806755297e+15,-128,-78,-71,-116,-11,-11,-89,-121
1.59109806756566e+15,127,56,26,67,27,27,71,70
1.59109806756566e+15,-56,-39,0,34,-55,-55,-96,-80
1.59109806757405e+15,70,37,24,0,28,28,38,46
1.59109806757405e+15,80,14,-11,-18,-28,-28,45,60
1.59109806758889e+15,-128,-51,-9,-101,-7,-7,-29,-54
1.59109806758889e+15,-65,-17,-2,-1,11,11,-15,-55
1.59109806759576e+15,-15,17,22,86,-2,-2,-28,20
1.59109806759576e+15,34,13,26,-5,12,12,13,-1
1.59109806761194e+15,39,-0,-48,-72,11,11,23,51
1.59109806761194e+15,-53,13,-8,62,-1,-1,43,53
1.591098067613e+15,26,-41,-48,-48,-55,-55,-79,-36
1.591098067613e+15,-39,-6,-29,-16,22,22,18,-18
1.59109806763416e+15,-42,-5,-4,-3,0,0,8,1
1.59109806763416e+15,29,19,21,-5,16,16,34,6
1.59109806763517e+15,-30,-17,21,30,-25,-25,-70,-49
1.59109806763517e+15,7,-3,-15,-39,6,6,30,15
1.59109806764893e+15,-42,2,-12,1,12,12,24,34
1.59109806764893e+15,21,11,-38,11,13,13,26,22
1.59109806765528e+15,38,19,51,-14,4,4,31,30
1.59109806765528e+15,-9,-7,36,-29,0,0,-4,-39
1.5910980676719e+15,-24,-6,-20,37,1,1,-5,-27
1.5910980676719e+15,55,-22,1,-88,-31,-31,-68,-9
1.59109806767311e+15,-57,-4,0,30,7,7,3,-34
1.59109806767311e+15,28,43,40,59,25,25,63,60
1.59109806769373e+15,4,1,11,12,-11,-11,-14,-5
1.59109806769373e+15,-8,7,-4,38,19,19,24,-17
1.59109806769573e+15,53,-26,-76,-120,-23,-23,-1,26
1.59109806769573e+15,-42,13,17,-20,20,20,63,39
1.59109806770908e+15,83,-15,-9,11,-29,-29,-100,-40
1.59109806770908e+15,27,22,7,67,9,9,14,15
1.59109806771013e+15,-51,-9,38,32,-20,-20,-28,-32
1.59109806771013e+15,38,-6,8,-60,4,4,-13,-10
1.59109806773198e+15,18,31,14,49,29,29,38,25
1.59109806773198e+15,75,14,67,-43,-6,-6,-5,15
1.59109806773298e+15,-106,-6,-45,65,22,22,0,-15
1.59109806773298e+15,40,5,2,48,-30,-30,-27,11
1.59109806775444e+15,-44,-16,-6,-48,8,8,-5,-18
1.59109806775444e+15,48,7,33,-43,-26,-26,14,49
1.59109806775545e+15,-63,-9,-28,-19,41,41,41,-43
1.59109806775545e+15,-16,-9,1,-26,-39,-39,11,33
1.59109806776925e+15,-8,6,-2,58,-3,-3,-4,-39
1.59109806776925e+15,30,6,-1,-1,11,11,3,-10
1.59109806777025e+15,44,-5,-42,-69,-6,-6,17,42
1.59109806777025e+15,-35,-10,7,28,15,15,-44,-54
1.59109806779098e+15,8,21,6,-24,10,10,80,64
1.59109806779098e+15,-2,-8,-5,22,-29,-29,-36,1
1.5910980677931e+15,68,3,19,-7,-21,-21,-44,13
1.5910980677931e+15,-80,-13,23,-5,-8,-8,-6,0
1.59109806781452e+15,6,-5,-33,9,18,18,-26,-44
1.59109806781452e+15,-18,26,5,39,13,13,92,44
1.59109806781553e+15,35,5,8,-48,-4,-4,21,36
1.59109806781553e+15,-35,1,-6,28,31,31,10,-51
1.5910980678279e+15,33,-8,19,19,-53,-53,-64,18
1.5910980678279e+15,25,23,-5,14,22,22,38,45
1.59109806783647e+15,-39,-29,-11,-31,-32,-32,-15,-35
1.59109806783647e+15,5,-5,-15,-16,1,1,-7,-7
1.59109806785163e+15,-50,-34,-41,-14,-13,-13,-40,-61
1.59109806785163e+15,24,-8,-12,-44,12,12,-30,-6
1.59109806785263e+15,36,43,13,70,11,11,70,73
1.59109806785263e+15,17,1,-2,9,9,9,-20,-24
1.59109806787424e+15,-43,-8,25,-19,-6,-6,7,-22
1.59109806787424e+15,-15,-9,0,21,-10,-10,-40,-33
1.59109806787525e+15,-6,-20,-28,-17,-13,-13,-42,-30
1.59109806787525e+15,19,6,-5,30,6,6,-2,-23
1.59109806788816e+15,-23,11,15,-25,30,30,35,35
1.59109806788816e+15,40,15,-6,5,-30,-30,48,77
1.59109806790398e+15,-99,-41,-24,-29,-5,-5,-64,-63
1.59109806790398e+15,23,1,10,-31,-8,-8,1,18
1.59109806791201e+15,26,21,17,28,6,6,35,24
1.59109806791201e+15,-24,-3,35,39,19,19,-42,-74
1.59109806791306e+15,32,11,6,-7,7,7,11,12
1.59109806791306e+15,1,-15,-11,-33,-20,-20,-28,11
1.59109806793369e+15,-11,-12,3,-24,3,3,-16,-41
1.59109806793369e+15,-27,17,-2,35,22,22,31,31
1.59109806793568e+15,21,17,30,77,-10,-10,-7,-9
1.59109806793568e+15,10,3,-8,-3,6,6,8,-2
1.59109806794845e+15,1,-2,9,-20,0,0,7,3
1.59109806794845e+15,-27,-22,-49,3,-22,-22,-46,-23
1.59109806795605e+15,28,3,1,-24,29,29,-15,-7
1.59109806795605e+15,24,14,-5,-4,-14,-14,50,58
1.59109806797182e+15,-26,-15,23,-15,-20,-20,-23,-18
1.59109806797182e+15,-18,-2,-35,24,26,26,6,-44
1.59109806797354e+15,19,-4,-19,-34,-4,-4,4,6
1.59109806797354e+15,2,2,-13,-14,-3,-3,17,19
1.59109806799459e+15,4,-3,-15,-64,6,6,15,27
1.59109806799459e+15,-27,-9,8,5,-8,-8,4,-20
1.59109806799563e+15,-17,-15,32,-6,-14,-14,-62,-47
1.59109806799563e+15,26,2,-33,29,-10,-10,-12,6
1.5910980680072e+15,3,-12,0,-22,11,11,-38,-60
1.5910980680072e+15,-29,-24,-22,-62,-32,-32,-6,17
1.59109806801673e+15,17,37,47,96,20,20,17,32
1.59109806801673e+15,-11,-0,22,-14,0,0,3,-1
1.5910980680318e+15,-30,-24,-52,-18,4,4,-21,-59
1.5910980680318e+15,34,12,54,-82,34,34,22,14
1.5910980680328e+15,40,7,-22,27,-20,-20,3,9
1.5910980680328e+15,-81,-25,4,5,-19,-19,-28,-48
1.59109806805435e+15,-40,-1,23,28,-2,-2,22,-42
1.59109806805435e+15,56,22,-2,42,-13,-13,-15,84
1.59109806805531e+15,-16,-21,5,-86,-20,-20,21,-8
1.59109806805531e+15,14,7,-8,-5,12,12,5,20
1.59109806806772e+15,42,12,20,-30,17,17,21,15
1.59109806806772e+15,-32,-2,-29,35,32,32,-12,-54
1.59109806807641e+15,-48,-14,-29,-36,-43,-43,50,41
1.59109806807641e+15,-11,-16,-22,-7,-1,-1,-44,-27
1.59109806809201e+15,12,10,20,13,-26,-26,4,59
1.59109806809201e+15,17,8,-1,-24,20,20,31,2
1.59109806809301e+15,-39,-14,-22,39,3,3,-46,-43
1.59109806809301e+15,12,-8,16,-32,-22,-22,3,3
1.59109806811457e+15,24,-4,-20,-19,10,10,-14,-17
1.59109806811457e+15,10,22,42,32,-15,-15,39,48
1.59109806812046e+15,-48,-2,-52,49,19,19,-1,-19
1.59109806812046e+15,2,-7,11,69,-29,-29,-39,-29
1.59109806812806e+15,12,9,-14,17,3,3,6,30
1.59109806812806e+15,-46,-39,-20,-77,-18,-18,-49,-56
1.59109806813612e+15,-6,10,15,4,13,13,32,10
1.59109806813612e+15,25,15,43,29,28,28,-16,-48
1.59109806815193e+15,53,36,-37,48,9,9,79,89
1.59109806815193e+15,-32,-45,-22,-31,-60,-60,-85,-30
1.59109806815296e+15,28,-8,35,-65,15,15,-50,-26
1.59109806815296e+15,14,19,-27,17,-8,-8,77,65
1.59109806818201e+15,51,15,19,-10,0,0,0,43
1.59109806818201e+15,-48,10,-18,45,33,33,33,-16
1.59109806818302e+15,6,-8,-8,-14,-11,-11,-19,-10
1.59109806818302e+15,-23,14,31,60,29,29,-15,-21
1.59109806818815e+15,42,13,1,-41,13,13,52,38
1.59109806818815e+15,-18,-24,-26,-22,-34,-34,-13,-35
1.59109806819646e+15,-5,5,22,12,-23,-23,4,52
1.59109806819646e+15,12,-3,11,-10,24,24,-30,-57
1.59109806821199e+15,-13,-19,-41,-29,-37,-37,-4,30
1.59109806821199e+15,8,16,-1,-5,1,1,67,46
1.591098068213e+15,13,5,2,-6,21,21,-8,10
1.591098068213e+15,-5,-17,-79,-85,-8,-8,53,29
1.59109806823436e+15,-41,3,66,77,-17,-17,-26,-48
1.59109806823436e+15,29,-11,-25,16,-7,-7,-58,-31
1.59109806823536e+15,8,10,18,18,22,22,16,-38
1.59109806823536e+15,8,1,-2,-32,-18,-18,16,47
1.59109806824805e+15,-13,-17,-19,-12,9,9,-53,-55
1.59109806824805e+15,17,15,-10,67,-18,-18,8,33
1.59109806825604e+15,-12,1,9,-6,12,12,12,-15
1.59109806825604e+15,-9,-12,17,39,-20,-20,-84,-42
1.59109806827195e+15,-32,-19,-46,-10,1,1,-9,-37
1.59109806827195e+15,41,24,68,11,19,19,28,-7
1.59109806827296e+15,13,-13,-58,-61,-7,-7,2,44
1.59109806827296e+15,-30,-9,-27,20,3,3,-35,-21
1.59109806829439e+15,10,2,3,0,1,1,-5,4
1.59109806829439e+15,-8,22,-5,3,18,18,61,57
1.59109806829539e+15,-18,-21,-6,-20,-43,-43,-20,-5
1.59109806829539e+15,13,11,22,27,11,11,11,-20
1.59109806830745e+15,-31,-6,3,-27,-9,-9,21,28
1.59109806830745e+15,19,-4,5,-7,14,14,-45,-24
1.59109806831652e+15,27,24,16,-28,5,5,77,52
1.59109806831652e+15,44,14,-67,26,-10,-10,28,62
1.59109806833207e+15,30,-14,28,-29,-11,-11,-53,-47
1.59109806833207e+15,-83,-34,-31,-75,2,2,-18,-40
1.59109806833814e+15,-29,5,10,52,-5,-5,-2,-16
1.59109806833814e+15,29,19,53,-10,16,16,35,22
1.59109806835456e+15,20,8,-19,40,-7,-7,-6,10
1.59109806835456e+15,13,-10,6,-48,-11,-11,-7,-6
1.59109806835495e+15,11,8,16,-10,15,15,12,-4
1.59109806835495e+15,15,4,45,-18,23,23,-13,-32
1.59109806836721e+15,-18,-9,-28,17,-13,-13,-20,-15
1.59109806836721e+15,-29,32,0,34,35,35,88,67
1.59109806837628e+15,-45,-37,-25,23,-61,-61,-87,-36
1.59109806837628e+15,4,-1,-3,-18,10,10,0,-9
1.5910980683911e+15,7,-2,6,-22,12,12,2,-18
1.5910980683911e+15,12,-28,-16,-45,-33,-33,-40,-36
1.59109806839804e+15,17,13,47,-2,31,31,-9,-19
1.59109806839804e+15,-37,-13,-23,-45,-6,-6,10,12
1.59109806841506e+15,-23,25,30,113,12,12,7,-13
1.59109806841506e+15,-5,4,27,62,25,25,-45,-78
1.59109806841607e+15,81,14,-28,-50,-4,-4,46,67
1.59109806841607e+15,-15,-21,-23,-40,-18,-18,-29,3
1.59109806842749e+15,18,24,34,0,15,15,39,32
1.59109806842749e+15,-10,-1,-29,57,0,0,-16,-22
1.59109806843641e+15,-14,-6,19,-21,17,17,-22,-25
1.59109806843641e+15,-4,-4,-22,14,-25,-25,1,13
1.59109806845091e+15,-24,-28,-1,-34,-33,-33,-29,-21
1.59109806845091e+15,16,12,-3,-47,35,35,32,21
1.59109806845789e+15,11,18,32,102,-26,-26,-2,-4
1.59109806845789e+15,-19,-2,-20,-20,9,9,33,5
1.59109806847384e+15,-3,6,7,-6,6,6,11,24
1.59109806847384e+15,-35,-13,-14,0,-16,-16,-26,0
1.59109806847584e+15,-34,-13,-10,-50,12,12,-5,-23
1.59109806847584e+15,32,13,34,59,-2,-2,-39,-11
1.59109806848693e+15,0,-0,-19,26,1,1,3,-19
1.59109806848693e+15,2,-0,11,-56,-9,-9,47,49
1.59109806850405e+15,1,1,15,17,25,25,-25,-53
1.59109806850405e+15,-32,-4,-2,-54,-29,-29,66,60
1.59109806851178e+15,-22,1,3,38,-16,-16,-28,16
1.59109806851178e+15,19,5,38,51,1,1,-33,-58
1.59109806851342e+15,21,-5,-51,-26,-11,-11,22,66
1.59109806851342e+15,-6,4,16,-26,27,27,0,-33
1.59109806853396e+15,29,12,19,-18,6,6,17,33
1.59109806853396e+15,2,-6,14,21,7,7,-49,-47
1.59109806853499e+15,-6,-5,-8,-10,-7,-7,9,-4
1.59109806853499e+15,31,10,18,18,-4,-4,-18,18
1.59109806854783e+15,-26,8,14,78,2,2,9,-27
1.59109806854783e+15,0,-20,-69,-37,-15,-15,-33,-10
1.59109806855642e+15,10,10,21,7,22,22,12,-5
1.59109806855642e+15,-47,-26,-21,-50,-18,-18,-9,-21
1.59109806857108e+15,-19,-9,-17,-2,-4,-4,-13,-14
1.59109806857108e+15,29,20,43,14,31,31,15,-7
1.59109806857735e+15,-13,1,-35,3,-25,-25,45,55
1.59109806857735e+15,-9,-6,7,5,3,3,-28,-36
1.59109806859525e+15,31,-7,29,-12,-15,-15,-49,-9
1.59109806859525e+15,24,12,-21,-24,12,12,46,38
1.59109806859626e+15,-21,7,-4,53,-8,-8,3,-3
1.59109806859626e+15,-9,-2,-5,-17,21,21,7,-25
1.59109806860735e+15,14,-2,-6,-13,3,3,-3,-3
1.59109806860735e+15,3,-9,19,-33,-27,-27,-7,16
1.5910980686223e+15,8,15,7,-3,41,41,22,-3
1.5910980686223e+15,11,-15,-11,-20,-31,-31,-20,-22
1.59109806863127e+15,-15,-0,-6,5,17,17,-35,-13
1.59109806863127e+15,13,-5,-10,-4,-44,-44,8,50
1.59109806863824e+15,-18,-4,18,-10,9,9,-3,-32
1.59109806863824e+15,12,-9,-31,-13,-8,-8,-8,11
1.59109806865372e+15,-36,-23,-25,-114,-3,-3,21,9
1.59109806865372e+15,-18,20,53,77,7,7,-1,-8
1.59109806865551e+15,9,3,-50,42,5,5,-23,0
1.59109806865551e+15,64,21,40,33,21,21,-18,-24
1.59109806866769e+15,-39,14,-34,-10,-15,-15,109,97
1.59109806866769e+15,12,-3,7,9,23,23,-48,-46
1.59109806867633e+15,-11,-8,2,-56,-29,-29,44,15
1.59109806867633e+15,15,8,10,20,-18,-18,-7,59
1.59109806869091e+15,0,-19,3,-5,-18,-18,-60,-54
1.59109806869091e+15,14,4,-4,-1,0,0,4,19
1.5910980686926e+15,-26,-6,13,20,14,14,-17,-59
1.5910980686926e+15,-17,13,-22,13,18,18,45,35
1.5910980687146e+15,-5,-12,9,-49,5,5,-15,-34
1.5910980687146e+15,43,10,-7,28,-18,-18,-3,22
1.5910980687156e+15,-27,-13,20,-41,-13,-13,5,-14
1.5910980687156e+15,-25,5,-15,45,11,11,0,-8
1.59109806873756e+15,-9,4,14,31,-10,-10,13,0
1.59109806873756e+15,39,18,12,-1,21,21,23,17
1.59109806873811e+15,11,-18,-15,-13,-27,-27,-45,-19
1.59109806873811e+15,14,33,53,34,56,56,19,6
1.59109806875165e+15,0,-12,-62,-56,-58,-58,50,97
1.59109806875165e+15,45,5,9,12,-2,-2,-22,-19
1.59109806875261e+15,-88,-25,-10,-12,-15,-15,-18,-24
1.59109806875261e+15,75,3,5,-13,-1,-1,-5,-28
1.59109806878827e+15,-62,-13,-5,-31,41,41,-17,-44
1.59109806878827e+15,-19,-14,-19,-13,-44,-44,0,30
1.59109806880501e+15,-22,-15,7,-32,-9,-9,-40,-2
1.59109806880501e+15,-34,-2,6,-11,-1,-1,12,3
1.59109806880501e+15,47,25,13,91,47,47,-12,-67
1.59109806880501e+15,4,-0,-23,-11,-36,-36,22,54
1.59109806880651e+15,35,13,13,0,14,14,11,16
1.59109806880651e+15,-46,-29,-29,-41,-15,-15,-33,-17
1.59109806881178e+15,33,11,22,7,3,3,-7,16
1.59109806881178e+15,-37,14,22,18,31,31,52,-7
1.59109806881326e+15,38,6,-4,25,12,12,-25,-19
1.59109806881326e+15,19,18,14,25,16,16,21,3
1.59109806883398e+15,27,-0,-15,-30,-40,-40,37,77
1.59109806883398e+15,-29,-18,-32,-29,3,3,-17,-33
1.59109806883503e+15,22,-9,-17,-55,-18,-18,9,31
1.59109806883503e+15,-9,18,32,95,3,3,-16,-23
1.59109806885637e+15,-19,-6,19,-9,9,9,-22,-35
1.59109806885637e+15,24,12,5,24,20,20,-3,-10
1.59109806885738e+15,23,18,24,17,-5,-5,35,46
1.59109806885738e+15,-36,-34,-36,-95,-11,-11,-1,-25
1.59109806887133e+15,33,18,-16,43,17,17,6,0
1.59109806887133e+15,-28,-10,-2,41,-24,-24,-21,-17
1.59109806887754e+15,-6,7,12,-17,23,23,27,0
1.59109806887754e+15,-10,2,-29,67,-29,-29,-9,27
1.59109806889454e+15,-1,-5,47,-47,-1,-1,-12,-3
1.59109806889454e+15,16,10,-43,12,26,26,9,0
1.59109806889555e+15,14,-2,3,14,-21,-21,-12,-8
1.59109806889555e+15,3,-18,-29,-84,-8,-8,16,12
1.59109806891668e+15,29,-1,31,39,-7,-7,-49,-48
1.59109806891668e+15,-71,-10,7,-1,15,15,-15,-15
1.59109806891762e+15,26,32,19,15,7,7,86,68
1.59109806891762e+15,-8,-38,-43,-55,-46,-46,-76,-23
1.5910980689313e+15,-34,-18,-22,-36,5,5,-7,-35
1.5910980689313e+15,-45,-20,25,-24,-14,-14,-29,-35
1.59109806893808e+15,23,6,-53,-6,25,25,8,12
1.59109806893808e+15,40,16,53,57,9,9,-34,-26
1.59109806895421e+15,-38,-14,-41,-41,-31,-31,37,42
1.59109806895421e+15,17,-12,-53,-23,-15,-15,-5,-1
1.59109806896747e+15,-23,1,15,-22,16,16,10,6
1.59109806896747e+15,4,16,4,95,6,6,-12,-23
1.59109806897692e+15,59,34,17,26,25,25,32,50
1.59109806897692e+15,-25,-19,-10,-68,-39,-39,31,40
1.59109806897748e+15,7,-11,-44,23,-7,-7,-34,-35
1.59109806897748e+15,12,19,2,-10,29,29,41,38
1.59109806899111e+15,-33,-28,4,-2,-27,-27,-53,-68
1.59109806899111e+15,11,-4,5,-53,12,12,8,7
1.59109806899819e+15,-6,5,-11,43,-6,-6,-11,-4
1.59109806899819e+15,-22,-9,5,-39,-10,-10,0,5
1.59109806901416e+15,15,1,-17,11,1,1,-24,-14
1.59109806901416e+15,7,23,32,46,21,21,21,5
1.59109806901616e+15,8,-16,-14,-30,-7,-7,-19,-26
1.59109806901616e+15,-18,2,0,-5,10,10,13,15
1.59109806903711e+15,-9,-0,-7,-12,-12,-12,35,25
1.59109806903711e+15,-10,-24,-24,-32,4,4,-53,-55
1.59109806903811e+15,13,5,16,15,0,0,-14,2
1.59109806903811e+15,26,21,-6,56,10,10,28,10
1.59109806905897e+15,-23,-2,-12,-25,-3,-3,30,26
1.59109806905897e+15,-5,9,17,54,-2,-2,-7,-16
1.59109806906108e+15,-7,-2,1,-6,10,10,-7,-17
1.59109806906108e+15,-12,-24,10,-32,-33,-33,-38,-27
1.59109806908176e+15,17,-3,-4,8,4,4,-36,-12
1.59109806908176e+15,30,-2,-12,4,-13,-13,-7,-7
1.59109806908248e+15,-17,-1,2,11,-1,-1,-11,5
1.59109806908248e+15,-21,-8,-16,-34,8,8,12,-6
1.59109806909694e+15,8,7,3,20,13,13,-4,-20
1.59109806909694e+15,13,30,35,17,24,24,33,59
1.59109806909796e+15,-54,-29,4,-19,-27,-27,-29,-43
1.59109806909796e+15,14,7,-30,-13,-3,-3,36,50
1.59109806911058e+15,1,2,28,12,2,2,-27,-6
1.59109806911058e+15,6,-7,-13,-10,-8,-8,-19,-10
1.59109806911858e+15,0,-0,3,2,-6,-6,5,3
1.59109806911858e+15,-2,-9,16,-45,-6,-6,3,-19
1.59109806913427e+15,24,20,-22,33,16,16,27,23
1.59109806913427e+15,-12,10,28,-17,8,8,43,23
1.59109806913527e+15,17,-21,-32,14,-24,-24,-79,-56
1.59109806913527e+15,-8,2,1,-21,-3,-3,19,42
1.59109806915696e+15,-20,-24,-27,-31,1,1,-34,-54
1.59109806915696e+15,-38,3,15,10,4,4,15,7
1.59109806915797e+15,-9,5,9,-8,-3,-3,7,31
1.59109806915797e+15,45,9,21,50,-14,-14,-22,-27
1.59109806917945e+15,-14,5,-7,1,7,7,13,14
1.59109806917945e+15,-13,-5,10,-5,5,5,11,-41
1.59109806918027e+15,-10,-5,-16,3,-12,-12,-6,11
1.59109806918027e+15,-8,-4,-1,-21,2,2,8,-6
1.59109806919408e+15,17,8,16,6,-3,-3,8,8
1.59109806919408e+15,-7,9,-20,-21,-8,-8,61,65
1.59109806919509e+15,-12,-22,19,-29,-17,-17,-54,-43
1.59109806919509e+15,22,7,0,19,-9,-9,-19,27
1.59109806921708e+15,-17,-14,-30,-52,-4,-4,8,12
1.59109806921708e+15,13,16,11,87,27,27,-24,-61
1.59109806921859e+15,4,-6,-23,-30,-13,-13,15,24
1.59109806921859e+15,-8,-8,2,-4,-4,-4,-17,-15
1.59109806923023e+15,23,4,17,1,4,4,-13,-15
1.59109806923023e+15,11,-6,-30,13,-11,-11,-12,-13
1.59109806923932e+15,-7,18,8,-47,36,36,88,40
1.59109806923932e+15,14,-9,13,23,-15,-15,-52,-53
1.59109806925392e+15,-17,4,-4,13,-11,-11,10,49
1.59109806925392e+15,2,-15,6,-17,-5,-5,-44,-39
1.5910980692606e+15,14,6,3,24,7,7,-8,-5
1.5910980692606e+15,-12,-18,24,-98,8,8,-2,-12
1.59109806927673e+15,26,15,1,46,13,13,11,-34
1.59109806927673e+15,-27,10,3,31,-7,-7,20,47
1.59109806927793e+15,18,13,-7,-13,9,9,37,48
1.59109806927793e+15,-27,-1,8,13,-5,-5,-19,7
1.59109806929108e+15,-40,-16,9,-15,-2,-2,-23,-38
1.59109806929108e+15,4,-9,-15,-33,-26,-26,29,25
1.59109806929889e+15,-23,-13,9,-5,8,8,-39,-66
1.59109806929889e+15,0,18,-26,65,14,14,27,21
1.59109806931466e+15,39,7,-2,1,-3,-3,-6,10
1.59109806931466e+15,-27,-7,3,-16,3,3,-15,9
1.59109806931567e+15,20,-6,-4,13,-9,-9,-22,-30
1.59109806931567e+15,15,9,-6,12,5,5,23,17
1.59109806933741e+15,-14,-20,-25,-52,1,1,-23,-26
1.59109806933741e+15,22,26,38,85,-2,-2,-9,9
1.59109806933843e+15,-4,-11,0,9,-4,-4,-42,-39
1.59109806933843e+15,-18,-21,-48,-12,-8,-8,-34,-27
1.59109806935923e+15,13,14,39,38,0,0,17,-3
1.59109806935923e+15,52,-17,-1,-66,-9,-9,-43,-13
1.59109806936024e+15,-68,-7,-25,-12,11,11,26,-6
1.59109806936024e+15,44,16,8,-19,11,11,23,54
1.59109806937459e+15,-43,-3,3,41,-6,-6,3,-21
1.59109806937459e+15,-7,-8,-24,-21,-10,-10,-15,10
1.59109806937559e+15,46,15,27,77,0,0,-44,-20
1.59109806937559e+15,-47,-25,-10,-28,20,20,-59,-71
1.59109806939703e+15,-5,27,32,27,34,34,49,26
1.59109806939703e+15,-35,-40,-30,-27,-61,-61,-66,-27
1.59109806939808e+15,28,5,3,-18,-6,-6,9,39
1.59109806939808e+15,-5,12,27,43,23,23,-3,-38
1.59109806941058e+15,-53,-31,-56,-58,-30,-30,2,11
1.59109806941058e+15,6,-2,2,-18,13,13,4,-22
1.59109806941921e+15,24,-5,22,-33,2,2,-21,-28
1.59109806941921e+15,-6,14,-26,-1,-21,-21,83,89
1.59109806943419e+15,7,4,31,-42,21,21,10,-11
1.59109806943419e+15,35,23,-11,83,12,12,2,-6
1.59109806943515e+15,-37,-11,-1,-6,-10,-10,-18,-2
1.59109806943515e+15,-6,1,-16,-9,0,0,40,8
1.59109806945697e+15,-12,-5,2,-6,-11,-11,-27,18
1.59109806945697e+15,23,8,-1,-14,13,13,19,9
1.59109806945797e+15,22,26,20,52,19,19,14,12
1.59109806945797e+15,2,-7,0,12,-9,-9,-35,-30
1.59109806947061e+15,23,2,-10,-43,-10,-10,28,58
1.59109806947061e+15,11,11,13,-28,22,22,39,20
1.59109806947889e+15,-12,-20,-2,-10,-41,-41,-25,-36
1.59109806947889e+15,-77,-20,-13,-13,-13,-13,21,-17
1.5910980694946e+15,3,-2,-21,0,8,8,-14,-16
1.5910980694946e+15,-10,2,30,23,-8,-8,1,-28
1.59109806949959e+15,65,16,-11,-5,36,36,-7,-2
1.59109806949959e+15,-57,-26,-10,-29,-41,-41,-29,-1
1.59109806951641e+15,62,20,27,52,1,1,-1,2
1.59109806951641e+15,-20,-20,-35,-36,-12,-12,-23,-5
1.59109806951757e+15,7,5,6,28,10,10,1,-23
1.59109806951757e+15,-13,2,-12,-9,9,9,15,19
1.59109806953041e+15,5,-5,39,28,15,15,-55,-68
1.59109806953041e+15,29,3,-41,-48,-14,-14,44,56
1.59109806953908e+15,13,5,3,-32,-3,-3,20,40
1.59109806953908e+15,21,15,24,65,22,22,-13,-55
1.59109806955414e+15,-31,-1,-2,-9,-11,-11,16,37
1.59109806955414e+15,29,7,5,-14,6,6,-3,38
1.59109806955514e+15,-21,-2,-10,-16,-11,-11,26,27
1.59109806955514e+15,69,34,22,45,30,30,24,9
1.5910980695762e+15,-105,-45,-42,-26,-34,-34,-36,-57
1.5910980695762e+15,-20,-0,-3,62,-13,-13,-9,-28
1.59109806957759e+15,-71,-15,-30,-63,-10,-10,59,62
1.59109806957759e+15,90,-5,15,-83,-9,-9,-21,-10
1.59109806959058e+15,4,18,5,81,-6,-6,-21,8
1.59109806959058e+15,16,8,77,8,7,7,-21,-27
1.59109806959892e+15,5,14,-20,11,13,13,36,22
1.59109806959892e+15,-21,-2,21,-17,35,35,2,-41
1.5910980696146e+15,18,-23,-83,-90,-46,-46,31,43
1.5910980696146e+15,-26,-2,8,-3,24,24,-1,-31
1.59109806961561e+15,-5,-18,25,61,-33,-33,-110,-58
1.59109806961561e+15,34,12,-22,-15,-8,-8,42,65
1.59109806963742e+15,23,6,37,0,7,7,-6,-12
1.59109806963742e+15,-19,-3,-1,-22,10,10,2,-9
1.59109806963843e+15,12,5,-30,-25,13,13,40,18
1.59109806963843e+15,-12,19,23,96,28,28,-14,-38
1.59109806965937e+15,65,-5,-22,-48,-51,-51,15,66
1.59109806965937e+15,-57,-20,-33,-19,-4,-4,-10,-23
1.59109806966027e+15,14,20,-1,18,21,21,41,19
1.59109806966027e+15,18,-4,12,12,-17,-17,-41,-18
1.59109806967358e+15,-42,2,4,10,14,14,19,-6
1.59109806967358e+15,-5,-4,-13,12,-12,-12,-1,-8
1.59109806968051e+15,3,11,38,42,9,9,3,-18
1.59109806968051e+15,-14,-12,-58,-77,-10,-10,25,50
1.59109806969675e+15,-19,11,10,72,23,23,-10,-47
1.59109806969675e+15,9,-9,4,-3,-8,-8,-56,-19
1.59109806969771e+15,-73,-32,-26,-34,-49,-49,-10,10
1.59109806969771e+15,48,8,15,-39,1,1,28,34
1.59109806971851e+15,30,18,31,22,41,41,13,-29
1.59109806971851e+15,-24,-31,-42,-9,-46,-46,-75,-25
1.59109806972056e+15,-6,10,21,16,10,10,10,5
1.59109806972056e+15,16,-2,-5,11,-19,-19,-1,3
1.59109806973433e+15,-31,-13,2,-68,18,18,6,3
1.59109806973433e+15,21,15,19,-15,26,26,35,-6
1.59109806973533e+15,47,15,26,44,6,6,-13,-15
1.59109806973533e+15,-47,-38,-32,-83,-23,-23,-30,-11
1.5910980697568e+15,13,19,12,84,7,7,2,-11
1.5910980697568e+15,17,4,-10,-40,17,17,39,13
1.5910980697578e+15,-12,-27,-18,-79,-19,-19,-53,-18
1.5910980697578e+15,33,35,45,92,13,13,29,13
1.59109806977925e+15,-13,1,27,7,-2,-2,-3,-8
1.59109806977925e+15,-12,-22,-39,-44,-13,-13,-32,-4
1.59109806978026e+15,2,17,7,33,34,34,31,-4
1.59109806978026e+15,-22,-6,-22,-28,-17,-17,17,33
1.59109806979429e+15,8,-1,30,9,-27,-27,-22,1
1.59109806979429e+15,-31,-14,-6,-36,-1,-1,-13,-17
1.59109806979967e+15,27,46,52,91,26,26,39,57
1.59109806979967e+15,14,-30,-26,-22,-33,-33,-69,-47
1.59109806981598e+15,-20,-17,-16,-27,9,9,-59,-26
1.59109806981598e+15,35,17,14,15,23,23,25,-3
1.59109806981798e+15,6,-8,-40,-82,-23,-23,38,69
1.59109806981798e+15,-25,10,5,81,-7,-7,-3,-8
1.59109806984694e+15,40,-0,-22,-11,-12,-12,-6,13
1.59109806984694e+15,-9,6,20,42,7,7,2,-25
1.59109806984799e+15,23,3,-8,-10,9,9,4,-4
1.59109806984799e+15,-27,-15,14,-65,6,6,2,-29
1.59109806985325e+15,29,8,-41,22,2,2,4,11
1.59109806985325e+15,-24,-5,1,0,3,3,1,-2
1.5910980698606e+15,-19,21,10,32,10,10,41,43
1.5910980698606e+15,-28,-21,-7,-42,-32,-32,-27,2
1.59109806987659e+15,43,2,11,7,12,12,-34,-38
1.59109806987659e+15,-24,7,-10,37,-8,-8,14,42
1.59109806987764e+15,43,-3,0,-61,14,14,12,-28
1.59109806987764e+15,-73,-15,-16,27,12,12,-27,-46
1.59109806989882e+15,-4,15,-1,48,-7,-7,31,45
1.59109806989882e+15,-58,-11,8,-7,-1,-1,-18,-2
1.59109806990082e+15,-26,-20,-14,-18,-7,-7,-35,-31
1.59109806990082e+15,22,38,32,53,27,27,59,36
1.59109806991417e+15,7,-38,-23,-66,-39,-39,-51,-45
1.59109806991417e+15,37,11,6,-19,-6,-6,30,42
1.59109806992807e+15,-17,6,9,52,6,6,-29,-28
1.59109806992807e+15,0,5,-1,14,-5,-5,5,11
1.591098069937e+15,-45,3,-1,28,7,7,24,-4
1.591098069937e+15,44,1,-15,-32,-6,-6,7,25
1.59109806993822e+15,-1,-11,-4,21,-9,-9,-34,-52
1.59109806993822e+15,4,8,6,17,11,11,-1,1
1.59109806995894e+15,-30,-14,4,-5,-11,-11,-33,-19
1.59109806995894e+15,-8,5,-10,2,7,7,36,15
1.59109806996e+15,13,-7,23,-15,-5,-5,-41,-33
1.59109806996e+15,-6,-5,17,13,-14,-14,-32,-19
1.59109806997388e+15,58,14,32,-36,7,7,16,32
1.59109806997388e+15,-16,2,5,41,-3,-3,-13,-23
1.59109806998052e+15,-20,5,-39,-12,27,27,54,25
1.59109806998052e+15,-13,-35,-21,-42,-49,-49,-61,-28
1.59109806999703e+15,28,11,-31,-4,-7,-7,27,51
1.59109806999703e+15,-21,-4,40,15,2,2,-28,-36
1.59109806999742e+15,7,-2,-1,0,9,9,-2,-18
1.59109806999742e+15,-6,-21,-49,-70,2,2,-8,6
1.59109807001919e+15,-45,12,13,36,4,4,29,13
1.59109807001919e+15,47,-3,-16,-3,-13,-13,-20,-22
1.59109807002018e+15,-37,-1,38,19,-8,-8,-22,-10
1.59109807002018e+15,-8,-6,-18,-63,10,10,34,9
1.59109807003275e+15,12,11,-28,55,4,4,1,0
1.59109807003275e+15,21,11,25,-19,1,1,29,32
1.59109807004039e+15,14,-8,7,-30,-4,-4,-16,-8
1.59109807004039e+15,-19,18,9,73,22,22,10,19
1.59109807005684e+15,-25,-9,-13,-46,15,15,27,-28
1.59109807005684e+15,9,-16,15,-34,-43,-43,-44,27
1.59109807005784e+15,-25,-12,-54,24,-7,-7,-30,-24
1.59109807005784e+15,19,8,25,1,-4,-4,24,16
1.59109807007848e+15,-4,-6,-8,1,-7,-7,-33,-23
1.59109807007848e+15,-5,-10,-3,-17,11,11,-30,-34
1.59109807008081e+15,14,10,32,25,-19,-19,21,27
1.59109807008081e+15,59,29,26,17,13,13,37,23
1.5910980700935e+15,-26,-4,-9,-30,15,15,13,0
1.5910980700935e+15,-6,-1,-10,2,-4,-4,4,1
1.59109807009979e+15,-66,-26,-16,-30,-21,-21,-27,-17
1.59109807009979e+15,11,14,-10,28,30,30,8,-14
1.59109807012465e+15,2,10,22,-15,-2,-2,43,36
1.59109807012465e+15,-19,-13,-27,-25,-10,-10,-10,-17
1.59109807012565e+15,7,-7,8,36,-31,-31,-36,-17
1.59109807012565e+15,-19,-8,-15,-27,7,7,-4,-7
1.59109807013922e+15,14,-10,-23,-12,-3,-3,-31,-18
1.59109807013922e+15,32,10,7,14,0,0,6,18
1.59109807014022e+15,-66,1,-6,20,22,22,25,-8
1.59109807014022e+15,-1,-7,-21,-5,-21,-21,-2,15
1.59109807015288e+15,-2,-13,23,-14,11,11,-45,-63
1.59109807015288e+15,53,31,-23,4,9,9,71,85
1.59109807017707e+15,12,-1,8,-16,7,7,5,-33
1.59109807017707e+15,14,7,-23,46,-7,-7,-9,17
1.59109807017807e+15,-19,-3,6,-13,0,0,0,-2
1.59109807017807e+15,12,-0,7,-16,2,2,-5,-4
1.59109807017907e+15,28,6,-20,25,-1,-1,-3,7
1.59109807017907e+15,-20,10,8,-21,-11,-11,66,59
1.59109807019878e+15,-7,2,-19,8,15,15,7,-9
1.59109807019878e+15,-17,-25,-12,-14,-44,-44,-21,-19
1.59109807020078e+15,2,-2,-8,-27,1,1,4,19
1.59109807020078e+15,37,11,15,53,25,25,-51,-52
1.59109807021324e+15,-60,-13,-5,-29,-54,-54,35,68
1.59109807021324e+15,-29,6,14,15,28,28,8,-20
1.59109807022134e+15,7,-25,-31,-20,-9,-9,-66,-53
1.59109807022134e+15,-17,-1,3,-32,-10,-10,29,24
1.59109807023701e+15,14,21,19,57,19,19,11,2
1.59109807023701e+15,6,11,13,16,11,11,11,-1
1.59109807023801e+15,40,-5,-13,-38,-10,-10,1,13
1.59109807023801e+15,5,2,24,-35,16,16,2,-6
1.59109807025952e+15,-31,-5,-5,42,-8,-8,-35,-21
1.59109807025952e+15,-21,-7,-3,9,9,9,-14,-32
1.59109807026027e+15,31,4,-18,2,-27,-27,21,39
1.59109807026027e+15,-36,-20,-5,-36,-8,-8,-15,-17
1.59109807027309e+15,-1,2,-14,-31,8,8,42,15
1.59109807027309e+15,22,3,-16,59,6,6,-48,-24
1.59109807028131e+15,-15,1,7,-48,8,8,38,30
1.59109807028131e+15,-11,-12,-17,25,-13,-13,-34,-43
1.59109807029705e+15,21,1,11,-36,16,16,-5,-12
1.59109807029705e+15,4,8,13,18,-17,-17,11,24
1.59109807029805e+15,51,13,20,-12,-1,-1,-3,13
1.59109807029805e+15,-91,-26,-25,-3,-9,-9,-14,-35
1.59109807031947e+15,24,22,53,60,4,4,4,5
1.59109807031947e+15,3,-11,-62,-50,5,5,15,12
1.59109807032036e+15,-17,-13,6,-45,4,4,-16,-30
1.59109807032036e+15,83,39,53,40,27,27,18,25
1.59109807034204e+15,-17,6,-10,-9,-9,-9,55,51
1.59109807034204e+15,-31,-23,-8,5,-22,-22,-65,-48
1.59109807034309e+15,8,14,0,31,-5,-5,27,35
1.59109807034309e+15,3,-23,-2,-74,-1,-1,-23,-32
1.59109807035601e+15,-49,-2,-19,21,-6,-6,15,13
1.59109807035601e+15,-27,6,50,66,-14,-14,-7,-15
1.59109807036299e+15,4,-2,10,-25,7,7,-16,-9
1.59109807036299e+15,2,-1,-29,4,-9,-9,-13,22
1.5910980703786e+15,27,-1,-1,-18,2,2,-7,-8
1.5910980703786e+15,-15,-0,-28,6,7,7,19,-5
1.5910980703786e+15,-11,-3,8,-30,10,10,10,2
1.5910980703786e+15,4,18,21,10,27,27,27,10
1.59109807040131e+15,-55,-61,-27,-22,-65,-65,-106,-100
1.59109807040131e+15,58,20,-10,-41,1,1,43,75
1.59109807040231e+15,-25,-9,-12,-23,12,12,0,-26
1.59109807040231e+15,8,-1,4,7,-5,-5,-12,-18
1.59109807041543e+15,24,39,40,41,52,52,45,48
1.59109807041543e+15,-13,-18,3,-51,-21,-21,-12,-14
1.59109807042381e+15,-8,7,19,74,-36,-36,-8,18
1.59109807042381e+15,27,14,42,-5,6,6,29,13
1.591098070447e+15,13,-19,8,-54,-13,-13,-39,-29
1.591098070447e+15,16,19,11,54,26,26,-1,-10
1.591098070447e+15,-33,-8,-55,-23,8,8,25,2
1.591098070447e+15,3,-1,13,44,-13,-13,-30,-31
1.59109807046945e+15,22,17,21,-14,37,37,8,-9
1.59109807046945e+15,-21,-1,7,5,-33,-33,19,46
1.59109807046945e+15,-1,-3,-44,5,-2,-2,-5,9
1.59109807046945e+15,-4,-21,-37,-38,-9,-9,-13,-13
1.59109807047546e+15,8,-17,-32,-43,-13,-13,-15,-22
1.59109807047546e+15,15,24,21,10,40,40,52,17
1.59109807048364e+15,-18,-20,51,-4,-36,-36,-77,-44
1.59109807048364e+15,32,17,-8,64,-8,-8,0,17
1.59109807049771e+15,34,18,-10,37,19,19,0,3
1.59109807049771e+15,-34,1,35,-15,-3,-3,27,9
1.59109807049871e+15,48,8,-64,24,4,4,19,22
1.59109807049871e+15,-26,-10,-10,4,15,15,-12,-35
1.59109807052102e+15,-4,-16,3,-43,-31,-31,0,5
1.59109807052102e+15,-27,-16,16,-49,22,22,-61,-76
1.59109807052187e+15,6,42,7,44,27,27,97,96
1.59109807052187e+15,14,-36,-18,-26,-66,-66,-83,-28
1.59109807053526e+15,23,-1,-8,32,-9,-9,-23,-17
1.59109807053526e+15,-42,-21,-51,-47,-2,-2,21,8
1.59109807054285e+15,-11,-20,20,-73,1,1,-15,-20
1.59109807054285e+15,-15,22,-5,28,21,21,55,30
1.59109807055792e+15,16,-4,13,18,-12,-12,-34,-20
1.59109807055792e+15,21,5,8,-12,3,3,0,3
1.59109807055938e+15,-9,12,18,74,0,0,-12,-15
1.59109807055938e+15,-18,17,7,37,7,7,33,36
1.59109807058076e+15,-8,-14,-13,-21,-6,-6,-19,-21
1.59109807058076e+15,-10,-13,-12,9,-3,-3,-30,-50
1.59109807058152e+15,21,13,46,13,44,44,13,-51
1.59109807058152e+15,14,-12,-36,-73,-62,-62,25,89
1.59109807059548e+15,0,3,-28,-31,14,14,31,34
1.59109807059548e+15,43,25,9,78,22,22,-1,-16
1.59109807060251e+15,-45,-11,3,-18,-18,-18,16,9
1.59109807060251e+15,-22,-18,16,-1,-11,-11,-51,-46
1.59109807061842e+15,-43,6,-7,12,12,12,30,25
1.59109807061842e+15,0,4,-9,8,19,19,18,-11
1.59109807061842e+15,77,12,28,29,-14,-14,-29,-11
1.59109807061842e+15,-99,-19,-24,-37,7,7,39,-3
1.591098070641e+15,58,3,-13,-34,-23,-23,15,58
1.591098070641e+15,-47,6,38,61,11,11,-25,-35
1.591098070641e+15,24,21,6,21,11,11,24,26
1.591098070641e+15,13,7,-11,18,18,18,-3,-17
1.59109807065611e+15,-55,-23,17,-8,-14,-14,-43,-28
1.59109807065611e+15,33,8,-21,-10,-2,-2,27,30
1.59109807065611e+15,-93,-63,-38,-77,-42,-42,-80,-79
1.59109807065611e+15,48,12,6,-18,0,0,18,27
1.59109807067837e+15,-38,-3,29,18,8,8,-9,-36
1.59109807067837e+15,5,2,-22,-29,-7,-7,26,40
1.59109807067938e+15,18,-1,-15,13,-12,-12,-25,3
1.59109807067938e+15,11,1,16,-13,33,33,-29,-48
1.59109807070075e+15,3,-3,-9,-9,-1,-1,1,-9
1.59109807070075e+15,2,-12,-24,-8,-15,-15,-11,1
1.59109807070175e+15,19,10,11,-43,32,32,26,4
1.59109807070175e+15,21,1,0,60,-7,-7,-48,-43
1.59109807072383e+15,10,6,1,26,-28,-28,-17,44
1.59109807072383e+15,-50,-21,-19,-36,-12,-12,11,-22
1.59109807072416e+15,-9,12,31,32,5,5,17,10
1.59109807072416e+15,28,4,6,-31,31,31,6,-6
1.59109807074717e+15,-13,2,-45,84,-14,-14,-22,-15
1.59109807074717e+15,10,-0,5,-17,-23,-23,-5,40
1.59109807074717e+15,12,-0,-4,-34,12,12,5,8
1.59109807074717e+15,-22,6,24,-1,10,10,19,-7
1.59109807076136e+15,20,-22,-10,-66,-19,-19,-11,-20
1.59109807076136e+15,-36,6,-55,115,-2,-2,-26,-10
1.59109807076136e+15,-7,-1,1,19,4,4,-3,-28
1.59109807076136e+15,46,15,-13,-17,17,17,17,48
1.59109807077482e+15,-6,1,-19,-31,-12,-12,37,39
1.59109807077482e+15,9,-8,24,-39,-2,-2,-8,-14
1.59109807078293e+15,-67,-36,-32,-15,-22,-22,-64,-45
1.59109807078293e+15,-12,9,6,-16,10,10,31,10
1.59109807079872e+15,21,18,28,71,14,14,-3,-17
1.59109807079872e+15,20,-24,-12,-103,-18,-18,-16,-4
1.59109807079872e+15,31,19,34,38,8,8,11,6
1.59109807079872e+15,-68,-3,16,-10,6,6,15,17
1.59109807082142e+15,-5,-5,28,-35,14,14,-18,-25
1.59109807082142e+15,-2,19,-13,34,3,3,57,29
1.59109807082142e+15,64,26,10,10,15,15,27,25
1.59109807082142e+15,-9,-14,-18,4,-30,-30,-35,-2
1.59109807083565e+15,5,-7,-28,-14,1,1,-7,5
1.59109807083565e+15,-1,8,33,47,-2,-2,-9,-18
1.59109807084312e+15,-12,-9,-38,-37,7,7,5,5
1.59109807084312e+15,10,13,-5,56,-4,-4,11,5
1.59109807085876e+15,23,16,27,8,10,10,27,2
1.59109807085876e+15,29,5,45,6,2,2,-25,-6
1.59109807085876e+15,-6,-4,-39,-46,4,4,29,39
1.59109807085876e+15,25,-1,7,-12,-29,-29,3,24
1.5910980708811e+15,-25,-5,-26,-37,15,15,18,5
1.5910980708811e+15,33,10,57,30,-5,-5,-8,-24
1.59109807088838e+15,1,5,-1,33,-4,-4,7,12
1.59109807088838e+15,-47,-36,-40,-41,-25,-25,-38,-31
1.59109807089547e+15,49,12,3,-4,7,7,-4,14
1.59109807089547e+15,-49,-3,-12,-36,19,19,22,17
1.59109807091113e+15,6,13,40,69,2,2,-10,-38
1.59109807091113e+15,22,12,6,24,-2,-2,2,11
1.59109807091822e+15,-3,25,38,26,38,38,26,6
1.59109807091822e+15,-13,-32,0,-11,-7,-7,-100,-81
1.59109807091916e+15,-9,-25,-62,-63,-62,-62,27,55
1.59109807091916e+15,18,4,17,23,-3,-3,-26,-11
1.59109807094081e+15,39,-1,0,-31,1,1,-3,7
1.59109807094081e+15,13,-13,-17,-67,6,6,5,2
1.59109807094177e+15,-65,8,23,38,25,25,-4,-16
1.59109807094177e+15,-30,-11,-60,6,-5,-5,-4,-4
1.59109807095576e+15,-12,-22,2,9,-41,-41,-44,-39
1.59109807095576e+15,-6,5,-5,7,14,14,-5,0
1.59109807096286e+15,34,9,-7,-22,-9,-9,52,37
1.59109807096286e+15,0,-2,0,-46,8,8,22,-10
1.59109807097953e+15,-22,12,9,52,18,18,4,-26
1.59109807097953e+15,20,5,-26,-17,-14,-14,17,61
1.59109807098094e+15,-69,-33,-7,-36,-5,-5,-33,-52
1.59109807098094e+15,38,17,25,3,13,13,8,28
1.5910980710007e+15,-5,-3,-45,30,-10,-10,-6,1
1.5910980710007e+15,10,2,19,3,-10,-10,-13,-1
1.5910980710017e+15,0,-7,4,-11,8,8,-32,-47
1.5910980710017e+15,-28,-6,-6,-12,-19,-19,19,39
1.59109807102395e+15,42,-2,5,13,-6,-6,-14,-34
1.59109807102395e+15,0,-7,-58,-86,-1,-1,24,59
1.59109807102495e+15,-70,18,47,119,14,14,-11,-34
1.59109807102495e+15,12,5,22,-23,-4,-4,40,1
1.59109807103874e+15,-26,-1,-6,-13,9,9,20,17
1.59109807103874e+15,48,-19,12,-44,-8,-8,-53,-34
1.59109807103874e+15,-17,2,-43,-17,-17,-17,33,45
1.59109807103874e+15,38,-5,0,-19,-13,-13,-18,-9
1.59109807106942e+15,-39,24,3,57,14,14,44,43
1.59109807106942e+15,14,-6,-13,-21,-5,-5,6,-11
1.59109807106942e+15,31,15,13,30,20,20,-2,-5
1.59109807106942e+15,-11,16,14,34,32,32,16,-5
1.59109807107623e+15,-38,-34,-29,-23,-55,-55,-32,-14
1.59109807107623e+15,-45,-16,10,-42,-9,-9,11,-16
1.59109807107623e+15,51,18,-31,46,9,9,9,16
1.59109807107623e+15,21,5,4,14,0,0,-14,-13
1.59109807109866e+15,-49,-7,3,-22,15,15,-5,7
1.59109807109866e+15,16,8,6,41,-4,-4,3,-22
1.59109807109966e+15,72,4,19,-42,4,4,-14,21
1.59109807109966e+15,-57,3,11,4,16,16,39,-6
1.59109807112127e+15,40,6,-6,15,-13,-13,-9,13
1.59109807112127e+15,-65,-6,25,8,-17,-17,-4,24
1.59109807112127e+15,10,-24,-70,-14,-28,-28,-49,-12
1.59109807112127e+15,53,10,30,31,15,15,-53,-45
1.59109807113629e+15,-72,8,44,-5,30,30,38,11
1.59109807113629e+15,15,4,-13,17,0,0,18,-17
1.59109807113629e+15,11,-12,6,-46,-27,-27,-4,7
1.59109807113629e+15,-6,4,-5,26,7,7,2,-3
1.59109807115771e+15,-52,-21,-31,-23,-12,-12,-12,-15
1.59109807115771e+15,86,29,11,35,12,12,19,21
1.59109807115866e+15,-13,12,20,-5,20,20,29,16
1.59109807115866e+15,-32,-28,-28,-30,-34,-34,-23,-22
1.59109807118136e+15,88,7,13,-6,9,9,-9,-40
1.59109807118136e+15,-52,-13,-30,9,-3,-3,-33,-7
1.59109807118136e+15,110,26,27,9,-2,-2,2,37
1.59109807118136e+15,-71,-26,-23,-14,-33,-33,-2,6
1.59109807119576e+15,15,-6,18,-32,15,15,-36,-29
1.59109807119576e+15,4,9,-3,-31,5,5,46,21
1.59109807121134e+15,-49,-4,16,42,-11,-11,-25,-10
1.59109807121134e+15,32,27,54,38,36,36,2,-7
1.5910980712184e+15,36,-12,-47,-38,-39,-39,1,37
1.5910980712184e+15,-66,-14,28,32,-10,-10,-32,-28
1.59109807121936e+15,16,-0,-35,-50,9,9,31,24
1.59109807121936e+15,-20,1,-5,11,13,13,4,-13
1.5910980712407e+15,88,22,6,-6,1,1,10,43
1.5910980712407e+15,-62,-11,8,19,13,13,-16,-51
1.59109807124169e+15,-9,1,10,-22,3,3,23,11
1.59109807124169e+15,44,19,-36,-27,26,26,74,45
1.59109807125697e+15,-58,-24,-2,72,-40,-40,-73,-83
1.59109807125697e+15,78,20,-7,6,-9,-9,24,52
1.59109807126396e+15,-82,-38,6,-27,-15,-15,-56,-70
1.59109807126396e+15,19,-3,12,-2,-3,-3,-13,-25
1.59109807127888e+15,9,-7,-4,-68,29,29,2,-16
1.59109807127888e+15,-30,-3,-5,18,2,2,-5,-6
1.59109807128645e+15,16,-9,-57,-46,-24,-24,33,38
1.59109807128645e+15,-42,-5,10,38,-5,-5,-46,-28
1.59109807130159e+15,-35,16,-6,32,18,18,46,22
1.59109807130159e+15,22,-4,10,33,-1,-1,-62,-43
1.59109807130159e+15,-21,-6,-22,-38,-18,-18,61,40
1.59109807130159e+15,20,-6,-11,-19,-20,-20,-1,22
1.59109807131516e+15,-1,6,32,28,3,3,-23,-20
1.59109807131516e+15,-7,12,-10,-38,37,37,59,38
1.59109807132353e+15,-23,-26,-44,24,1,1,-68,-89
1.59109807132353e+15,9,14,23,39,-6,-6,10,14
1.59109807133873e+15,4,8,8,-27,8,8,23,47
1.59109807133873e+15,-5,-9,-37,-39,-7,-7,30,5
1.59109807133873e+15,-5,16,35,42,43,43,-2,-21
1.59109807133873e+15,-10,-33,-18,-37,-69,-69,-57,-1
1.59109807136119e+15,33,8,-15,20,3,3,-3,-7
1.59109807136119e+15,-1,3,3,-32,14,14,22,7
1.59109807136119e+15,-1,7,9,21,-1,-1,-21,0
1.59109807136119e+15,-4,-5,-21,-5,4,4,-4,-10
1.5910980713745e+15,-19,7,11,15,12,12,12,10
1.5910980713745e+15,24,-1,-9,-30,-13,-13,19,16
1.59109807138288e+15,10,24,54,59,13,13,16,3
1.59109807138288e+15,9,7,1,4,36,36,0,-26
1.59109807139865e+15,-36,-20,8,-29,-53,-53,5,26
1.59109807139865e+15,23,19,-15,43,21,21,20,6
1.59109807139865e+15,9,-4,12,-25,-18,-18,-8,18
1.59109807139865e+15,8,-7,10,8,-10,-10,-33,-17
1.59109807142121e+15,29,10,-20,-57,16,16,65,58
1.59109807142121e+15,-7,-13,5,3,-26,-26,-47,-13
1.59109807142121e+15,41,11,33,-4,-2,-2,-3,-5
1.59109807142121e+15,-48,8,-2,40,29,29,18,-10
1.59109807143517e+15,10,-8,-17,-18,-10,-10,-8,-12
1.59109807143517e+15,-20,-3,-23,46,-6,-6,-16,-15
1.59109807144355e+15,46,1,-5,-25,4,4,-12,-4
1.59109807144355e+15,-24,-9,-2,-29,-9,-9,10,3
1.59109807145889e+15,3,21,30,53,14,14,11,10
1.59109807145889e+15,6,-6,15,4,-20,-20,-13,-7
1.59109807145889e+15,5,3,11,11,23,23,-2,-46
1.59109807145889e+15,44,6,11,-80,17,17,25,31
1.5910980714814e+15,-41,-18,-75,19,-35,-35,-2,29
1.5910980714814e+15,-3,-9,5,-44,-16,-16,-5,9
1.5910980714814e+15,-38,4,40,35,8,8,-14,-25
1.5910980714814e+15,18,-0,-13,-16,-11,-11,15,24
1.59109807149501e+15,31,-2,-13,-24,14,14,-2,-23
1.59109807149501e+15,-6,-2,28,8,-2,-2,-24,-17
1.59109807151102e+15,-58,1,2,-2,23,23,35,-3
1.59109807151102e+15,58,-2,-50,-23,-23,-23,-17,32
1.59109807151889e+15,-20,-0,13,42,-9,-9,-15,-15
1.59109807151889e+15,2,6,6,6,2,2,18,6
1.59109807151889e+15,23,-8,-25,-26,-3,-3,-21,7
1.59109807151889e+15,-91,-5,20,42,4,4,-7,-33
1.59109807154128e+15,26,-1,8,-53,18,18,-2,-17
1.59109807154128e+15,17,17,15,65,-4,-4,2,11
1.59109807154128e+15,-79,-6,-43,-28,23,23,82,9
1.59109807154128e+15,52,-37,-26,-50,-73,-73,-83,-25
1.59109807156456e+15,-70,-16,-3,-59,-37,-37,44,32
1.59109807156456e+15,-10,16,42,78,28,28,-1,-73
1.59109807156456e+15,34,4,-22,-45,-4,-4,17,50
1.59109807156456e+15,-4,22,21,31,18,18,66,31
1.59109807157862e+15,23,-3,21,4,-2,-2,-23,-29
1.59109807157862e+15,-28,-17,-33,-44,-1,-1,-22,-16
1.59109807157938e+15,0,-6,-9,-3,-3,-3,-30,-13
1.59109807157938e+15,7,17,14,23,27,27,0,-9
1.59109807160081e+15,17,5,12,25,4,4,-9,-21
1.59109807160081e+15,-5,2,-13,33,-4,-4,4,6
1.59109807160184e+15,14,7,21,3,3,3,16,9
1.59109807160184e+15,-26,-34,-17,-27,-17,-17,-71,-77
1.5910980716229e+15,17,20,10,13,7,7,31,51
1.5910980716229e+15,14,-17,-41,-28,-19,-19,-32,9
1.59109807162391e+15,-63,-13,5,11,-10,-10,-25,-21
1.59109807162391e+15,45,22,38,18,14,14,-11,24
1.59109807163802e+15,-99,-23,-34,-33,17,17,22,-49
1.59109807163802e+15,43,44,32,61,36,36,61,30
1.59109807163902e+15,38,-41,-18,-38,-77,-77,-93,-25
1.59109807163902e+15,-5,13,6,18,13,13,26,21
1.59109807166194e+15,41,12,10,24,10,10,-14,-7
1.59109807166194e+15,-12,11,-4,11,20,20,20,16
1.59109807166194e+15,11,-10,3,-6,-21,-21,-20,-27
1.59109807166194e+15,7,8,-1,3,0,0,11,41
1.59109807168276e+15,-55,-30,-49,-31,-18,-18,-13,-25
1.59109807168276e+15,-13,10,11,-11,13,13,31,21
1.59109807168376e+15,39,21,21,5,22,22,15,17
1.59109807168376e+15,-32,-7,-27,30,-14,-14,3,-15
1.5910980716996e+15,70,16,30,19,18,18,-13,-22
1.5910980716996e+15,-64,-28,-31,-48,-9,-9,-12,-15
1.5910980717006e+15,35,1,3,19,-4,-4,-48,-14
1.5910980717006e+15,-26,-6,31,-16,-11,-11,-7,10
1.59109807172121e+15,15,7,-33,-27,-7,-7,55,56
1.59109807172121e+15,25,-3,-7,-9,-6,-6,7,-10
1.59109807172194e+15,40,13,8,-2,5,5,12,17
1.59109807172194e+15,-59,-6,2,18,7,7,5,-30
1.59109807174363e+15,87,29,41,41,13,13,-27,15
1.59109807174363e+15,-3,-16,-33,-21,-21,-21,-15,-16
1.59109807174363e+15,-92,-10,-9,-27,-4,-4,41,34
1.59109807174363e+15,16,5,7,33,11,11,-11,-23
1.59109807175864e+15,3,8,7,11,-13,-13,29,22
1.59109807175864e+15,-6,-18,-12,-73,-11,-11,-16,12
1.59109807175864e+15,-26,-6,-3,30,-10,-10,-19,-27
1.59109807175864e+15,28,-0,-6,-12,10,10,-9,-21
1.59109807178911e+15,-98,-25,4,-27,1,1,-23,-27
1.59109807178911e+15,81,27,41,7,10,10,3,23
1.59109807179011e+15,1,11,-18,16,-2,-2,42,30
1.59109807179011e+15,-16,11,15,16,38,38,19,-34
1.5910980718036e+15,23,-19,-32,6,-48,-48,-53,-2
1.5910980718036e+15,-54,-26,-16,-52,-25,-25,-8,15
1.5910980718106e+15,0,-2,-7,-6,2,2,-16,-10
1.5910980718106e+15,25,13,-3,14,2,2,15,28
1.59109807181814e+15,60,23,23,42,29,29,-1,-11
1.59109807181814e+15,-55,-9,14,3,-6,-6,-6,-11
1.59109807181914e+15,-4,-3,-35,-28,7,7,11,10
1.59109807181914e+15,-3,-23,-17,-31,-8,-8,-26,-48
1.59109807184123e+15,11,5,-17,-52,18,18,40,18
1.59109807184123e+15,18,-18,1,40,-49,-49,-102,-34
1.59109807184123e+15,-15,1,16,1,1,1,26,9
1.59109807184123e+15,-12,-10,-21,-29,3,3,2,-11
1.59109807186309e+15,46,17,-1,9,3,3,10,37
1.59109807186309e+15,-20,23,33,13,32,32,57,22
1.59109807186405e+15,19,-9,1,17,-14,-14,-39,-38
1.59109807186405e+15,18,16,-6,13,13,13,35,25
1.59109807187884e+15,-52,-35,-18,-52,-39,-39,-40,-5
1.59109807187884e+15,-19,3,6,0,14,14,13,-12
1.59109807187884e+15,28,19,28,47,16,16,-4,-1
1.59109807187884e+15,17,-4,-6,3,3,3,-49,-7
1.59109807190092e+15,-68,-33,-17,24,-38,-38,-63,-70
1.59109807190092e+15,37,5,6,3,-3,-3,2,12
1.59109807190192e+15,-12,-12,-19,-25,-13,-13,-10,0
1.59109807190192e+15,-21,2,-3,-32,16,16,21,1
1.59109807192322e+15,45,20,20,36,22,22,4,-8
1.59109807192322e+15,-35,-15,-6,5,-17,-17,-10,-14
1.59109807192421e+15,20,11,3,-14,20,20,25,4
1.59109807192421e+15,43,10,8,8,-19,-19,9,31
1.59109807193851e+15,-27,15,47,12,39,39,21,-9
1.59109807193851e+15,-51,-17,-58,-20,-29,-29,30,45
1.59109807194646e+15,-7,-3,17,-11,-5,-5,0,-25
1.59109807194646e+15,12,-3,1,-12,-12,-12,-7,-4
1.5910980719614e+15,-11,5,-8,-4,-2,-2,11,42
1.5910980719614e+15,92,9,22,4,16,16,-29,-12
1.5910980719614e+15,-10,-3,-23,-17,-1,-1,12,1
1.5910980719614e+15,-6,-8,-12,-36,-29,-29,20,44
1.59109807198293e+15,-20,-8,1,2,17,17,-9,-48
1.59109807198293e+15,-1,26,49,44,23,23,33,-6
1.59109807198392e+15,35,-8,32,-30,-22,-22,-34,-1
1.59109807198392e+15,-53,-4,-14,28,3,3,-5,-18
1.59109807199866e+15,17,-3,-41,-35,12,12,14,-1
1.59109807199866e+15,-31,7,2,22,6,6,2,17
1.59109807199866e+15,-11,-3,-3,40,-22,-22,-12,3
1.59109807199866e+15,49,15,11,9,13,13,11,15
1.59109807202048e+15,-36,-21,4,-41,-16,-16,-20,-12
1.59109807202048e+15,48,-1,-12,-12,0,0,-20,-22
1.59109807202153e+15,-27,-11,-3,-11,10,10,-19,-28
1.59109807202153e+15,-24,-11,-6,-20,-1,-1,7,-10
1.59109807204394e+15,20,33,3,34,20,20,41,70
1.59109807204394e+15,3,-6,3,24,-20,-20,-34,-33
1.59109807204394e+15,18,2,8,20,-10,-10,-23,-1
1.59109807204394e+15,6,-1,36,-32,-11,-11,8,10
1.5910980720663e+15,-30,-24,-1,-72,5,5,0,-35
1.5910980720663e+15,11,10,-10,38,21,21,-12,-24
1.59109807206724e+15,-11,11,7,24,-3,-3,29,34
1.59109807206724e+15,-2,-3,-17,11,-9,-9,-15,-14
1.5910980720895e+15,38,7,23,-43,6,6,29,22
1.5910980720895e+15,34,-11,-32,-50,-3,-3,-19,-3
1.5910980720895e+15,9,6,10,33,7,7,2,-5
1.5910980720895e+15,-29,-10,-24,-25,-7,-7,9,6
1.59109807211032e+15,20,21,2,59,1,1,-16,1
1.59109807211032e+15,-47,-21,0,-15,-2,-2,-16,-33
1.59109807212022e+15,27,-1,-7,-32,-11,-11,-3,23
1.59109807212022e+15,-17,-9,3,22,-16,-16,-4,-10
1.59109807212103e+15,21,-14,-41,-42,8,8,-18,-33
1.59109807212103e+15,1,38,70,89,-7,-7,34,65
1.59109807212246e+15,-10,-10,-41,-60,11,11,28,-1
1.59109807212246e+15,17,4,28,-15,12,12,-41,-22
1.59109807214126e+15,-34,-18,-24,20,-36,-36,-35,3
1.59109807214126e+15,17,3,11,-25,6,6,12,-5
1.59109807214126e+15,-1,5,-37,13,0,0,18,18
1.59109807214126e+15,15,-6,-23,-40,12,12,4,0
1.59109807216396e+15,-61,-14,42,33,-10,-10,-24,-67
1.59109807216396e+15,41,15,-3,-31,7,7,29,47
1.59109807216396e+15,-27,-6,5,-10,-6,-6,-5,9
1.59109807216396e+15,27,17,-29,37,5,5,23,19
1.59109807217818e+15,-11,-3,7,1,6,6,-11,-21
1.59109807217818e+15,-28,-20,-59,-29,3,3,6,-14
1.5910980721863e+15,16,-19,-7,-38,-18,-18,-32,-39
1.5910980721863e+15,51,23,34,-1,17,17,1,46
1.59109807220074e+15,-79,-16,24,22,-6,-6,-21,-70
1.59109807220074e+15,17,9,-15,15,-14,-14,17,35
1.59109807220174e+15,-50,-9,-22,40,0,0,-8,-26
1.59109807220174e+15,13,-10,11,-69,-13,-13,-7,11
1.59109807222355e+15,62,18,-29,41,9,9,-2,22
1.59109807222355e+15,6,14,24,0,22,22,29,8
1.59109807222449e+15,26,14,20,38,19,19,-23,-28
1.59109807222449e+15,1,2,-8,-12,-27,-27,34,73
1.59109807223791e+15,6,8,-9,15,5,5,11,12
1.59109807223791e+15,8,-14,5,-31,-6,-6,-26,-43
1.5910980722462e+15,2,-3,-38,-14,-4,-4,27,26
1.5910980722462e+15,-17,-15,-7,-52,9,9,-11,-62
1.59109807226131e+15,21,-8,-67,-66,-12,-12,23,56
1.59109807226131e+15,-24,-14,0,12,-14,-14,-28,-17
1.59109807226131e+15,15,24,57,-4,27,27,37,25
1.59109807226131e+15,-33,-12,-8,105,-19,-19,-70,-90
1.59109807228358e+15,8,19,3,42,9,9,25,42
1.59109807228358e+15,-23,-0,34,-16,-1,-1,30,-18
1.59109807228358e+15,-9,-20,-26,20,-6,-6,-68,-52
1.59109807228358e+15,-32,-5,5,12,-40,-40,18,58
1.59109807229808e+15,-8,7,23,-2,10,10,-12,-6
1.59109807229808e+15,-8,-12,-57,10,-6,-6,-8,-25
1.59109807230608e+15,-3,-18,12,-86,19,19,13,-5
1.59109807230608e+15,4,17,71,25,9,9,5,-24
1.59109807232116e+15,7,10,-49,50,4,4,13,24
1.59109807232116e+15,-11,-26,-13,-71,-20,-20,-16,-2
1.59109807232191e+15,24,33,-19,101,1,1,22,27
1.59109807232191e+15,-33,-16,-53,-1,19,19,-20,-60
1.59109807234396e+15,27,17,11,-2,-5,-5,33,64
1.59109807234396e+15,32,15,-5,50,4,4,-20,12
1.59109807234396e+15,-25,-3,16,-16,2,2,24,-7
1.59109807234396e+15,-28,-20,13,-8,-28,-28,-48,-6
1.59109807235811e+15,49,-11,-12,-35,4,4,-9,-32
1.59109807235811e+15,-40,-2,-20,-71,9,9,35,15
1.59109807236523e+15,26,10,2,36,3,3,-29,9
1.59109807236523e+15,-27,13,-28,24,13,13,60,40
1.59109807238926e+15,-6,-21,34,37,-22,-22,-77,-67
1.59109807238926e+15,28,-10,8,-67,-5,-5,15,26
1.59109807238926e+15,-26,6,-25,10,2,2,5,-17
1.59109807238926e+15,-25,-2,24,-21,16,16,12,-13
1.59109807241208e+15,9,20,18,50,18,18,1,0
1.59109807241208e+15,22,-2,12,4,-13,-13,-25,1
1.59109807241208e+15,-20,-4,-42,15,-2,-2,1,1
1.59109807241208e+15,40,4,12,7,2,2,-13,-13
1.59109807241698e+15,9,-15,13,-48,-27,-27,1,-18
1.59109807241698e+15,34,6,-47,15,15,15,5,25
1.59109807242618e+15,-34,-7,-12,-67,-10,-10,38,31
1.59109807242618e+15,-20,-16,-4,40,-7,-7,-64,-37
1.59109807244111e+15,-18,-6,-15,-3,-6,-6,16,-22
1.59109807244111e+15,11,14,36,9,8,8,11,8
1.59109807244111e+15,2,3,16,-3,-4,-4,-3,17
1.59109807244111e+15,22,5,-3,-13,11,11,5,-23
1.59109807246345e+15,6,17,-11,-6,18,18,34,32
1.59109807246345e+15,-106,-53,-33,-26,-52,-52,-52,-33
1.59109807246345e+15,45,9,28,46,-8,-8,-31,-5
1.59109807246345e+15,21,16,-1,35,-6,-6,22,26
1.59109807248704e+15,-33,-9,19,-54,13,13,-2,-10
1.59109807248704e+15,-16,27,25,65,34,34,27,-12
1.59109807248704e+15,0,-5,45,-38,-15,-15,6,-4
1.59109807248704e+15,41,-9,-11,-73,-3,-3,-11,19
1.59109807250146e+15,29,-2,23,14,-20,-20,-34,-19
1.59109807250146e+15,-41,13,9,-17,-6,-6,82,73
1.59109807250146e+15,7,-2,2,-5,5,5,-15,-21
1.59109807250146e+15,-16,8,-17,58,3,3,1,10
1.59109807252344e+15,-38,-26,56,-86,2,2,-37,-54
1.59109807252344e+15,51,31,-40,31,26,26,31,24
1.59109807252344e+15,-32,-19,10,14,-14,-14,-30,-42
1.59109807252344e+15,20,-7,-22,-56,-8,-8,30,30
1.5910980725467e+15,8,-5,-29,-59,4,4,10,13
1.5910980725467e+15,-56,-20,0,44,-5,-5,-38,-72
1.5910980725467e+15,52,1,11,-29,-17,-17,-20,30
1.5910980725467e+15,-60,8,-3,23,32,32,-4,-10
1.59109807256128e+15,-7,-17,25,-42,-27,-27,-9,-9
1.59109807256128e+15,67,38,8,87,33,33,7,-10
1.59109807256128e+15,10,-9,-46,-83,-14,-14,40,67
1.59109807256128e+15,-101,-35,-19,24,-34,-34,-17,-37
1.59109807258313e+15,53,23,10,3,25,25,18,25
1.59109807258313e+15,22,-0,26,-14,-19,-19,-22,-9
1.59109807258439e+15,20,12,26,1,21,21,3,12
1.59109807258439e+15,22,10,5,27,-11,-11,16,7
1.59109807260563e+15,-58,-0,-12,46,16,16,0,-15
1.59109807260563e+15,19,-14,-16,-92,-5,-5,24,25
1.59109807260659e+15,-5,-16,20,4,-30,-30,-55,-41
1.59109807260659e+15,-22,24,-27,8,32,32,63,51
1.59109807262214e+15,-13,-23,-18,-6,-37,-37,-48,-35
1.59109807262214e+15,15,8,43,41,-1,-1,-25,-21
1.59109807262315e+15,-42,-13,7,-22,0,0,2,-10
1.59109807262315e+15,55,26,10,-8,4,4,43,71
1.59109807264291e+15,36,27,22,74,8,8,7,6
1.59109807264291e+15,-51,-22,-29,-73,22,22,-6,-31
1.59109807265113e+15,2,14,-13,101,-19,-19,2,9
1.59109807265113e+15,1,-36,4,-63,-16,-16,-66,-74
1.5910980726746e+15,30,13,-11,-5,5,5,42,48
1.5910980726746e+15,19,-16,13,-71,-13,-13,-27,2
1.5910980726746e+15,-17,-5,-15,5,18,18,-15,-45
1.5910980726746e+15,-8,9,9,-14,-26,-26,53,58
1.5910980726892e+15,13,1,-21,36,-3,-3,-39,-22
1.5910980726892e+15,-43,24,12,58,10,10,43,66
1.5910980726892e+15,2,-24,-12,-69,-30,-30,-30,-10
1.5910980726892e+15,12,2,-6,10,12,12,-3,-9
1.59109807270386e+15,-9,-13,20,-33,-8,-8,5,-9
1.59109807270386e+15,51,21,23,65,10,10,-8,-19
1.59109807270386e+15,-19,-11,-14,-13,-3,-3,12,-2
1.59109807270386e+15,54,18,-1,16,22,22,-4,-18
1.59109807272633e+15,-78,-12,35,-43,0,0,15,30
1.59109807272633e+15,7,7,-34,37,-2,-2,-43,34
1.59109807272733e+15,9,19,42,19,16,16,2,11
1.59109807272733e+15,15,3,6,-13,-7,-7,5,30
1.59109807274051e+15,39,-8,9,-7,-7,-7,-37,-23
1.59109807274051e+15,-39,-13,-32,-87,-15,-15,34,91
1.59109807274147e+15,42,26,-65,44,15,15,45,97
1.59109807274147e+15,-35,-28,-36,-75,-9,-9,-15,-17
1.5910980727639e+15,-30,12,20,85,-2,-2,-28,-14
1.5910980727639e+15,-20,-20,10,9,-6,-6,-31,-90
1.5910980727639e+15,28,11,13,24,7,7,-19,-58
1.5910980727639e+15,5,-19,-41,-91,0,0,74,12
1.59109807278708e+15,-11,10,-10,51,12,12,47,-10
1.59109807278708e+15,27,-23,-17,-37,-26,-26,-57,-77
1.59109807278708e+15,-63,4,-10,88,-5,-5,43,-2
1.59109807278708e+15,47,-14,6,-51,29,29,-53,-37
1.59109807280143e+15,2,-20,-21,-74,-30,-30,-6,2
1.59109807280143e+15,-16,35,24,101,45,45,28,-17
1.59109807280143e+15,24,26,27,11,12,12,-15,6
1.59109807280143e+15,47,-0,20,21,-30,-30,-23,8
1.59109807282337e+15,-24,-22,-62,-50,-24,-24,-7,35
1.59109807282337e+15,30,3,13,-29,20,20,28,72
1.59109807282437e+15,-16,-45,18,-128,-37,-37,-94,-25
1.59109807282437e+15,-26,29,39,127,-47,-47,23,23
1.59109807284716e+15,25,2,-3,-1,10,10,4,-42
1.59109807284716e+15,-4,-30,-2,-71,-29,-29,-2,-97
1.59109807284716e+15,-9,2,-19,55,38,38,10,-74
1.59109807284716e+15,12,11,13,-35,16,16,3,0
1.59109807286129e+15,-14,-7,-21,35,-9,-9,-19,-48
1.59109807286129e+15,-21,-26,-11,-93,25,25,-13,-4
1.59109807286129e+15,0,12,19,-2,15,15,51,-3
1.59109807286129e+15,-65,-10,2,105,-15,-15,-26,-61
1.59109807288367e+15,53,34,33,29,7,7,21,42
1.59109807288367e+15,0,-22,19,-50,0,0,-46,-75
1.59109807288367e+15,3,-2,-34,13,-9,-9,52,48
1.59109807288367e+15,-13,-5,-6,-24,-20,-20,-50,22
1.59109807290599e+15,19,25,-15,-17,37,37,32,63
1.59109807290599e+15,-32,-3,37,69,-36,-36,-38,-35
1.59109807291389e+15,3,-9,-1,-41,7,7,9,-11
1.59109807291389e+15,56,28,10,-19,42,42,33,31
1.59109807292132e+15,-42,-21,-27,40,-40,-40,-22,31
1.59109807292132e+15,23,20,-6,-29,26,26,69,51
1.59109807292132e+15,-66,-16,-10,57,-19,-19,-78,-85
1.59109807292132e+15,15,25,0,13,1,1,83,78
1.59109807294438e+15,-2,4,-2,14,9,9,-7,2
1.59109807294438e+15,-5,-2,-89,18,-8,-8,22,4
1.59109807294438e+15,3,-8,71,-45,-3,-3,26,16
1.59109807294438e+15,-52,-45,-13,-114,3,3,-51,-62
1.59109807296663e+15,38,43,42,104,21,21,8,-2
1.59109807296663e+15,-22,-2,-19,51,-30,-30,-10,20
1.59109807296758e+15,38,2,-20,-16,2,2,19,4
1.59109807296758e+15,18,-6,-27,-9,-42,-42,-58,-1
1.59109807298059e+15,-33,-21,-1,-117,53,53,48,25
1.59109807298059e+15,35,30,32,101,-6,-6,-28,-4
1.59109807298159e+15,37,1,27,-45,-10,-10,-23,20
1.59109807298159e+15,-23,2,-6,64,2,2,5,-28
1.5910980730036e+15,-23,-15,-89,-26,-35,-35,17,33
1.5910980730036e+15,-20,1,8,4,23,23,-12,-12
1.5910980730036e+15,-19,6,-10,-9,7,7,-13,1
1.5910980730036e+15,-11,-16,1,-29,-9,-9,4,-15
1.59109807302702e+15,3,-6,65,-56,19,19,-1,-64
1.59109807302702e+15,40,8,-9,11,4,4,20,34
1.59109807302702e+15,-4,10,-24,26,8,8,80,42
1.59109807302702e+15,16,4,-20,29,-6,-6,-47,10
1.59109807304129e+15,-38,-60,-6,-30,-74,-74,-93,-67
1.59109807304129e+15,3,9,-34,-52,-19,-19,17,54
1.59109807304129e+15,12,30,57,-84,58,58,40,17
1.59109807304129e+15,-13,2,11,4,15,15,-3,-13
1.59109807306389e+15,-1,12,14,57,1,1,32,15
1.59109807306389e+15,-34,-25,-12,18,-17,-17,-20,-52
1.59109807306405e+15,9,-16,0,-41,-9,-9,-23,11
1.59109807306405e+15,41,31,28,40,33,33,34,22
1.59109807308647e+15,-21,2,-9,13,9,9,14,-42
1.59109807308647e+15,2,-18,3,-55,-13,-13,-26,-10
1.59109807308747e+15,-12,-5,-23,-3,-40,-40,-4,35
1.59109807308747e+15,-12,-33,-19,-81,6,6,-5,-61
1.59109807310035e+15,-5,36,11,64,7,7,19,81
1.59109807310035e+15,-1,4,31,29,10,10,7,-25
1.59109807311608e+15,42,12,-66,28,14,14,-1,21
1.59109807311608e+15,-10,-12,0,6,-43,-43,-31,-28
1.59109807312344e+15,-30,28,30,65,36,36,15,-13
1.59109807312344e+15,3,-19,-16,-128,2,2,47,45
1.59109807312344e+15,-53,-6,17,61,1,1,-40,-75
1.59109807312344e+15,40,9,22,6,6,6,-2,13
1.59109807314716e+15,46,-13,-14,-45,-30,-30,-28,8
1.59109807314716e+15,-34,-0,1,36,26,26,-3,-15
1.59109807314716e+15,2,21,27,26,-14,-14,28,32
1.59109807314716e+15,-24,17,3,53,32,32,30,-9
1.5910980731606e+15,34,5,-25,4,2,2,16,-1
1.5910980731606e+15,2,-25,-21,-59,-33,-33,-33,-12
1.59109807317634e+15,-19,-17,-35,26,-12,-12,-16,-33
1.59109807317634e+15,-38,-13,20,-102,36,36,36,-6
1.5910980731836e+15,46,51,6,105,34,34,27,23
1.5910980731836e+15,-45,-51,-19,-53,-60,-60,-59,-53
1.5910980731836e+15,14,-8,5,-57,2,2,-10,27
1.5910980731836e+15,38,13,-30,54,-17,-17,11,20
1.59109807320664e+15,-6,-25,-15,-74,4,4,-28,-20
1.59109807320664e+15,-11,46,61,111,30,30,29,0
1.59109807320765e+15,-29,-21,-44,-11,-19,-19,-4,-27
1.59109807320765e+15,-20,-22,2,-78,3,3,-34,-27
1.59109807322071e+15,25,14,4,-23,8,8,53,39
1.59109807322071e+15,-6,-4,-20,43,5,5,-53,-69
1.5910980732452e+15,33,7,30,-62,3,3,27,62
1.5910980732452e+15,-48,-32,-7,47,-29,-29,-84,-67
1.59109807324625e+15,26,1,-10,-3,-17,-17,-9,-4
1.59109807324625e+15,-21,-3,-20,-24,24,24,40,17
1.59109807324721e+15,36,15,18,16,8,8,10,-9
1.59109807324721e+15,-62,-38,-52,-37,-34,-34,-14,5
1.59109807326555e+15,16,23,40,-19,29,29,39,21
1.59109807326555e+15,18,29,-4,110,2,2,13,6
1.59109807326655e+15,-5,-26,-8,-26,-39,-39,-29,-12
1.59109807326655e+15,25,18,22,13,10,10,11,28
1.59109807327965e+15,-57,-33,-18,-16,-18,-18,-49,-50
1.59109807327965e+15,25,13,8,-59,19,19,59,32
1.5910980732879e+15,-4,-15,-21,-43,8,8,-15,-20
1.5910980732879e+15,27,22,41,105,13,13,4,-25
1.59109807330398e+15,-21,-31,-19,-25,-42,-42,-36,-26
1.59109807330398e+15,13,27,16,2,22,22,39,44
1.59109807330409e+15,-6,-21,9,-26,18,18,-58,-65
1.59109807330409e+15,30,6,-6,-55,-15,-15,50,45
1.59109807332656e+15,-28,-4,-12,7,10,10,-26,-24
1.59109807332656e+15,11,-5,29,-3,-9,-9,-28,-17
1.59109807333366e+15,14,31,-7,120,21,21,6,-23
1.59109807333366e+15,13,8,-20,-19,8,8,30,41
1.5910980733402e+15,-12,3,9,-8,-3,-3,19,34
1.5910980733402e+15,3,-23,-16,-42,-50,-50,-28,27
1.59109807334859e+15,-20,-1,7,30,24,24,-15,-45
1.59109807334859e+15,1,-2,1,-84,3,3,15,32
1.59109807336339e+15,29,20,-3,44,5,5,22,22
1.59109807336339e+15,-8,-22,-9,-19,-27,-27,-65,-2
1.59109807336439e+15,12,17,7,68,-6,-6,-17,25
1.59109807336439e+15,-51,-17,-18,14,-11,-11,-12,-33
1.59109807338641e+15,16,3,1,-16,6,6,23,25
1.59109807338641e+15,-11,-2,-5,-15,-9,-9,17,37
1.59109807338641e+15,-8,-18,-23,-24,-24,-24,-5,-14
1.59109807338641e+15,0,12,-2,9,8,8,14,20
1.59109807340945e+15,1,-16,3,-80,5,5,-6,-31
1.59109807340945e+15,-23,8,-7,80,8,8,-14,-41
1.59109807340945e+15,16,1,11,-36,-16,-16,29,46
1.59109807340945e+15,26,25,9,18,23,23,22,35
1.59109807342386e+15,7,-1,8,18,5,5,-25,-20
1.59109807342386e+15,-20,-5,10,15,14,14,-13,-49
1.59109807342409e+15,9,8,-6,-17,-7,-7,11,45
1.59109807342409e+15,-60,-13,3,9,-7,-7,3,-29
1.59109807345419e+15,40,-26,-44,-38,-47,-47,-50,-12
1.59109807345419e+15,26,5,12,-20,25,25,6,9
1.59109807345419e+15,-106,13,18,66,-14,-14,65,47
1.59109807345419e+15,70,12,24,12,13,13,-23,-22
1.59109807346891e+15,-42,-8,-18,-3,-9,-9,16,4
1.59109807346891e+15,41,-6,-6,-47,-19,-19,2,8
1.59109807346991e+15,20,3,-1,-27,25,25,-3,-34
1.59109807346991e+15,-23,8,15,36,7,7,-3,-23
1.5910980734835e+15,-2,12,25,73,-1,-1,-12,-18
1.5910980734835e+15,4,-2,-28,-6,5,5,-7,1
1.5910980734835e+15,8,-0,-5,-12,-4,-4,22,9
1.5910980734835e+15,-16,-20,-12,-24,-14,-14,-55,-29
1.59109807350597e+15,2,-8,-1,-14,-4,-4,-14,-22
1.59109807350597e+15,8,-4,-3,4,-19,-19,-11,1
1.59109807350597e+15,11,10,9,15,35,35,-21,-12
1.59109807350597e+15,-18,-1,-34,-35,-36,-36,74,84
1.59109807352823e+15,-16,-21,10,-44,-5,-5,-30,-61
1.59109807352823e+15,22,37,-2,38,21,21,63,87
1.5910980735292e+15,1,-7,5,-6,3,3,-18,-32
1.5910980735292e+15,25,-1,12,-5,0,0,-30,-10
1.591098073552e+15,-24,-5,14,-7,-4,-4,-6,0
1.591098073552e+15,-10,7,5,19,9,9,14,-17
1.591098073552e+15,1,1,-1,-23,8,8,10,-1
1.591098073552e+15,26,7,10,35,-3,-3,-8,-3
1.59109807356614e+15,3,-9,-9,-42,-6,-6,10,13
1.59109807356614e+15,1,-9,2,-12,3,3,-24,-44
1.59109807356614e+15,-15,-2,-3,19,-4,-4,0,-12
1.59109807356614e+15,-2,16,-3,23,16,16,24,22
1.59109807358923e+15,1,15,2,6,10,10,46,34
1.59109807358923e+15,40,-1,8,10,-9,-9,-53,-13
1.59109807358923e+15,-35,-24,-25,-22,-6,-6,-23,-43
1.59109807358923e+15,-69,-30,-25,-14,-23,-23,-28,-19
1.59109807360281e+15,3,-3,-12,10,-20,-20,15,6
1.59109807360281e+15,6,1,7,9,-15,-15,-20,16
1.59109807360381e+15,18,8,18,10,4,4,-5,-4
1.59109807360381e+15,-3,-4,-8,4,11,11,-8,-40
1.59109807362599e+15,12,12,24,-19,17,17,32,12
1.59109807362599e+15,-33,-1,-26,2,-4,-4,43,19
1.59109807362599e+15,3,-18,-10,-25,-27,-27,-51,-11
1.59109807362599e+15,6,13,-9,3,4,4,46,35
1.59109807364893e+15,-6,5,6,-3,14,14,4,8
1.59109807364893e+15,0,-11,-15,-4,-7,-7,-19,-19
1.59109807364993e+15,11,8,2,10,-9,-9,11,31
1.59109807364993e+15,-8,-10,29,24,4,4,-59,-69
1.59109807366293e+15,14,-0,-21,-41,4,4,2,38
1.59109807366293e+15,19,14,3,-10,7,7,45,29
1.59109807366389e+15,-22,-12,-25,8,-15,-15,-21,-13
1.59109807366389e+15,11,22,19,-5,28,28,54,31
1.59109807369381e+15,47,-24,-11,-6,-51,-51,-94,-21
1.59109807369381e+15,-59,-17,-25,-68,8,8,25,13
1.59109807369481e+15,-16,-23,-13,-34,-10,-10,-41,-37
1.59109807369481e+15,73,49,28,71,39,39,28,22
1.59109807370777e+15,-15,23,3,100,-3,-3,27,31
1.59109807370777e+15,-14,9,15,10,-20,-20,35,43
1.59109807371575e+15,14,-1,3,2,-8,-8,6,-1
1.59109807371575e+15,-50,-35,-18,-67,-14,-14,-30,-47
1.59109807373171e+15,-3,-0,-10,-25,22,22,10,-10
1.59109807373171e+15,9,-8,5,23,-7,-7,-43,-47
1.59109807373171e+15,-43,14,16,0,36,36,59,10
1.59109807373171e+15,2,-18,-21,-22,-51,-51,-29,31
1.5910980737467e+15,-7,2,8,20,25,25,-21,-43
1.5910980737467e+15,3,-4,3,-10,-27,-27,-4,16
1.5910980737467e+15,1,7,-1,-11,22,22,22,4
1.5910980737467e+15,26,-1,14,14,-16,-16,-41,6
1.59109807377597e+15,-7,-2,-18,-40,23,23,35,-3
1.59109807377597e+15,-39,-4,-1,4,-4,-4,-6,-6
1.59109807377694e+15,41,23,11,43,8,8,18,11
1.59109807377694e+15,4,-27,2,-31,-10,-10,-81,-63
1.59109807378296e+15,-12,21,-6,5,-9,-9,72,107
1.59109807378296e+15,10,-18,33,6,5,5,-70,-94
1.59109807378392e+15,-17,-9,-42,-27,-21,-21,9,50
1.59109807378392e+15,30,28,16,12,19,19,53,49
1.59109807380653e+15,-13,-12,8,2,-1,-1,-16,-65
1.59109807380653e+15,5,9,-7,-13,8,8,17,35
1.59109807380753e+15,-25,-11,6,-7,-3,-3,-19,-25
1.59109807380753e+15,46,24,-6,19,9,9,53,22
1.59109807382867e+15,-38,-8,12,16,-6,-6,-34,-24
1.59109807382867e+15,41,14,6,-6,34,34,17,-25
1.59109807382969e+15,-1,-10,-9,-46,-45,-45,31,46
1.59109807382969e+15,17,2,4,37,-15,-15,-38,1
1.59109807384366e+15,6,3,-8,22,18,18,-13,-37
1.59109807384366e+15,21,19,-4,-3,18,18,42,47
1.59109807384366e+15,21,13,30,13,-3,-3,6,14
1.59109807384366e+15,-48,-35,-53,-45,-28,-28,-34,-6
1.59109807386519e+15,14,6,14,-2,3,3,-6,1
1.59109807386519e+15,-22,-27,-3,-5,-24,-24,-64,-61
1.59109807386614e+15,34,27,-11,-25,45,45,58,60
1.59109807386614e+15,22,-20,-24,-13,-44,-44,-15,-22
1.59109807388952e+15,-60,-5,17,26,0,0,-16,-27
1.59109807388952e+15,-29,-19,-14,-22,-20,-20,-35,16
1.59109807389051e+15,25,18,40,27,18,18,5,-12
1.59109807389051e+15,-23,-26,-46,-23,-28,-28,-56,-26
1.59109807390373e+15,23,6,-9,16,13,13,-3,-6
1.59109807390373e+15,-25,3,10,-20,12,12,53,-2
1.59109807390373e+15,-15,-31,-15,-15,-44,-44,-80,-32
1.59109807390373e+15,-18,16,32,31,30,30,1,4
1.59109807392614e+15,7,-5,-18,-38,-16,-16,20,21
1.59109807392614e+15,20,17,12,34,12,12,2,17
1.59109807392695e+15,-29,-27,-24,-20,-14,-14,-17,-43
1.59109807392695e+15,11,-2,3,-13,14,14,-7,-26
1.5910980739486e+15,23,-6,0,-44,-13,-13,-10,12
1.5910980739486e+15,-43,14,33,88,21,21,-13,-35
1.59109807394961e+15,-19,5,-23,-18,-9,-9,51,55
1.59109807394961e+15,30,8,4,-8,-4,-4,10,24
1.59109807396395e+15,-14,-4,-7,7,3,3,-8,-3
1.59109807396395e+15,15,-6,-9,-52,4,4,-6,3
1.59109807396395e+15,-52,-2,17,29,0,0,-7,-9
1.59109807396395e+15,-42,8,13,18,24,24,41,-16
1.59109807399466e+15,62,13,5,6,-10,-10,-1,35
1.59109807399466e+15,18,-2,-9,12,-23,-23,-27,13
1.59109807399466e+15,27,-12,-23,-17,-7,-7,-23,-31
1.59109807399466e+15,-19,-3,19,-25,-3,-3,22,3
1.59109807400922e+15,-3,9,6,11,12,12,13,12
1.59109807400922e+15,36,4,-2,10,26,26,-24,-39
1.59109807401022e+15,46,7,12,-34,-9,-9,38,9
1.59109807401022e+15,-56,7,-5,35,23,23,17,-11
1.59109807402264e+15,-30,-19,-17,-18,-30,-30,-17,0
1.59109807402264e+15,27,8,10,4,-4,-4,10,18
1.59109807403106e+15,13,4,11,-10,15,15,-17,-6
1.59109807403106e+15,8,16,-10,43,21,21,29,-2
1.59109807405351e+15,-4,-10,-10,-15,-13,-13,-20,-1
1.59109807405351e+15,-24,-1,-2,0,6,6,3,-6
1.59109807405451e+15,-56,-48,-21,-22,-52,-52,-86,-61
1.59109807405451e+15,19,6,-3,-26,-8,-8,23,50
1.59109807407607e+15,2,24,17,35,38,38,41,0
1.59109807407607e+15,28,-18,-38,-24,-30,-30,-26,-10
1.59109807408464e+15,33,16,6,60,10,10,-25,-6
1.59109807408464e+15,-14,-5,15,-20,2,2,-3,-11
1.59109807408565e+15,-24,-13,-16,-23,-1,-1,4,-14
1.59109807408565e+15,-5,-1,-13,-9,-12,-12,0,24
1.59109807409139e+15,-28,15,16,50,24,24,15,-12
1.59109807409139e+15,23,2,-22,-16,-7,-7,25,21
1.59109807410712e+15,30,1,25,-6,-10,-10,-45,8
1.59109807410712e+15,4,-6,7,5,-8,-8,0,-29
1.59109807410712e+15,-26,-5,-23,-30,3,3,10,26
1.59109807410712e+15,25,-2,8,8,14,14,-49,-46
1.59109807412904e+15,-34,-8,-11,-44,-10,-10,51,14
1.59109807412904e+15,21,6,10,-36,6,6,14,29
1.59109807412979e+15,-56,3,-4,57,2,2,10,-12
1.59109807412979e+15,33,1,34,-20,3,3,-34,-2
1.59109807414319e+15,3,12,-15,37,46,46,19,-45
1.59109807414319e+15,-36,-27,-29,-59,-84,-84,4,74
1.59109807415104e+15,62,22,5,46,2,2,-10,21
1.59109807415104e+15,-117,-15,-27,-18,17,17,49,-20
1.59109807416699e+15,96,27,31,25,-2,-2,3,24
1.59109807416699e+15,-64,-4,-9,26,8,8,12,-8
1.59109807416794e+15,-22,-17,3,-35,-2,-2,-24,-36
1.59109807416794e+15,38,5,10,3,-9,-9,-21,8
1.59109807418865e+15,-14,-2,-12,-11,-8,-8,17,9
1.59109807418865e+15,17,19,15,23,38,38,35,-16
1.59109807418966e+15,21,-13,-16,-51,-16,-16,-28,9
1.59109807418966e+15,13,15,13,17,8,8,14,32
1.59109807420331e+15,-20,-20,-5,4,-11,-11,-54,-51
1.59109807420331e+15,-6,1,6,0,-7,-7,9,0
1.59109807421135e+15,19,4,6,-20,14,14,9,-3
1.59109807421135e+15,48,11,-16,-7,-16,-16,13,56
1.59109807422615e+15,-44,-15,12,9,-14,-14,-36,-18
1.59109807422615e+15,92,25,-14,-7,18,18,29,27
1.59109807422615e+15,-51,15,27,57,25,25,20,9
1.59109807422615e+15,-29,-12,0,-35,12,12,1,-33
1.59109807424924e+15,-22,-34,-44,-18,-54,-54,-60,-7
1.59109807424924e+15,-47,-24,-12,-5,-12,-12,-46,-40
1.59109807424924e+15,99,35,8,-2,27,27,69,33
1.59109807424924e+15,20,8,-9,11,12,12,7,-3
1.59109807426318e+15,-65,-12,0,-31,-7,-7,19,0
1.59109807426318e+15,3,-6,7,33,-12,-12,-70,-16
1.59109807427089e+15,-4,6,11,13,22,22,6,-26
1.59109807427089e+15,-4,-27,-23,-45,-68,-68,-18,42
1.59109807428619e+15,45,37,29,51,37,37,28,15
1.59109807428619e+15,-22,-5,-5,-20,8,8,32,-19
1.59109807428619e+15,20,4,15,-7,-7,-7,-9,20
1.59109807428619e+15,10,2,3,18,18,18,-27,-22
1.59109807430937e+15,-33,-9,-6,-5,-20,-20,1,12
1.59109807430937e+15,35,8,-5,-3,-1,-1,8,17
1.59109807430937e+15,-76,-20,-21,-17,-14,-14,2,5
1.59109807430937e+15,-22,-10,-12,-14,0,0,5,-34
1.59109807432314e+15,17,-0,3,25,5,5,-19,-43
1.59109807432314e+15,8,21,2,23,20,20,27,54
1.59109807433125e+15,66,-20,9,-33,-28,-28,-94,-58
1.59109807433125e+15,-15,7,-25,-9,11,11,47,30
1.59109807435429e+15,24,35,20,30,26,26,38,72
1.59109807435429e+15,-51,-32,-13,-10,-35,-35,-19,-56
1.59109807435429e+15,48,3,1,-6,7,7,-12,-13
1.59109807435429e+15,-38,-11,16,15,-9,-9,-26,-33
1.5910980743695e+15,1,5,20,6,17,17,-1,-28
1.5910980743695e+15,13,-1,-8,-29,-8,-8,9,27
1.5910980743695e+15,-25,-3,-31,-24,-5,-5,51,7
1.5910980743695e+15,37,5,22,28,-11,-11,-29,-22
1.59109807439205e+15,-42,-11,-12,-10,-4,-4,4,-3
1.59109807439205e+15,12,4,14,-9,12,12,7,-8
1.59109807439205e+15,4,11,10,-4,10,10,26,18
1.59109807439205e+15,-23,-7,13,16,-28,-28,-9,0
1.59109807440638e+15,25,-1,-28,-30,4,4,17,21
1.59109807440638e+15,-23,-6,15,1,3,3,-31,-34
1.59109807440638e+15,23,36,9,55,24,24,64,55
1.59109807440638e+15,30,-9,-3,-44,-22,-22,-7,10
1.5910980744295e+15,-96,-27,-20,-10,-7,-7,-19,-33
1.5910980744295e+15,-4,-0,-2,-4,9,9,-3,-10
1.5910980744295e+15,16,-2,-1,-8,-12,-12,-1,11
1.5910980744295e+15,-9,15,12,35,34,34,20,-25
1.59109807445199e+15,36,1,23,13,0,0,-42,-35
1.59109807445199e+15,16,-14,-11,-29,-28,-28,-11,-1
1.59109807445199e+15,-8,2,-8,17,12,12,-1,-13
1.59109807445199e+15,-71,-28,-19,-29,-9,-9,-26,-21
1.59109807446609e+15,44,26,12,33,6,6,31,36
1.59109807446609e+15,-19,1,24,24,25,25,-37,-57
1.59109807446609e+15,51,12,-19,-27,-9,-9,40,65
1.59109807446609e+15,-9,5,26,1,22,22,-17,-8
1.59109807448921e+15,-26,2,-29,9,-30,-30,45,55
1.59109807448921e+15,20,2,-2,17,-5,-5,-3,-7
1.59109807448921e+15,-3,-24,-25,-21,-31,-31,-42,-26
1.59109807448921e+15,-10,10,-4,10,8,8,35,19
1.59109807451946e+15,44,14,12,-21,24,24,13,13
1.59109807451946e+15,-67,-36,-21,-13,-41,-41,-56,-37
1.59109807451946e+15,7,2,22,-9,9,9,-12,-10
1.59109807451946e+15,78,25,8,22,11,11,20,16
1.59109807452577e+15,-59,-13,-14,-21,9,9,5,-10
1.59109807452577e+15,-10,9,-12,12,3,3,41,26
1.5910980745269e+15,-44,-6,9,23,2,2,-26,-29
1.5910980745269e+15,9,-30,-25,-48,-41,-41,-62,-10
1.59109807454859e+15,106,41,-1,24,25,25,47,46
1.59109807454859e+15,-33,3,3,1,7,7,11,17
1.5910980745496e+15,-27,-18,2,4,-34,-34,-39,-16
1.5910980745496e+15,20,-10,-8,-12,-1,-1,-39,-32
1.59109807457188e+15,-7,11,3,17,0,0,34,30
1.59109807457188e+15,30,1,3,-20,4,4,8,-8
1.59109807457188e+15,12,11,-8,-4,22,22,19,17
1.59109807457188e+15,7,-2,-7,30,-9,-9,-43,-14
1.59109807458687e+15,-30,-16,7,-39,8,8,-8,-40
1.59109807458687e+15,2,5,-2,34,3,3,-12,-10
1.59109807458687e+15,-52,-3,17,17,11,11,8,-29
1.59109807458687e+15,17,-1,5,-23,-5,-5,10,9
1.59109807460992e+15,-26,-15,-10,-13,-7,-7,-16,-32
1.59109807460992e+15,33,23,3,-24,26,26,55,45
1.59109807461027e+15,-14,-8,-18,18,-28,-28,-14,7
1.59109807461027e+15,0,-8,-2,13,5,5,-21,-48
1.59109807463205e+15,7,-7,3,-28,-30,-30,-28,33
1.59109807463205e+15,-18,7,14,21,1,1,17,6
1.59109807463205e+15,18,8,1,-9,22,22,23,-16
1.59109807463205e+15,-55,15,13,27,43,43,50,-6
1.59109807464618e+15,-1,-49,-27,-59,-74,-74,-88,-30
1.59109807464618e+15,29,19,-4,15,22,22,19,41
1.59109807464618e+15,-31,-10,-4,-34,-23,-23,16,13
1.59109807464618e+15,2,15,1,-2,14,14,41,33
1.5910980746695e+15,10,7,-6,44,12,12,-3,-28
1.5910980746695e+15,19,8,-5,2,12,12,5,8
1.5910980746695e+15,-9,12,8,33,18,18,13,3
1.5910980746695e+15,22,-20,-7,-14,-26,-26,-78,-40
1.59109807469194e+15,26,27,-9,-15,-2,-2,96,101
1.59109807469194e+15,-72,-31,-4,0,-15,-15,-58,-66
1.59109807469194e+15,16,-13,-6,-34,-10,-10,-22,-23
1.59109807469194e+15,-31,13,-13,29,7,7,57,35
1.59109807470596e+15,59,13,26,-9,31,31,-21,-27
1.59109807470596e+15,8,-18,-11,-29,-32,-32,-7,-19
1.59109807470696e+15,-32,-1,28,22,17,17,-34,-41
1.59109807470696e+15,9,13,-4,-2,-2,-2,43,55
1.59109807472924e+15,36,-2,2,-7,-9,-9,-33,-1
1.59109807472924e+15,-12,4,-10,-28,17,17,27,16
1.59109807473002e+15,20,1,-1,6,-7,-7,0,6
1.59109807473002e+15,-68,-11,5,24,7,7,-29,-35
1.59109807474995e+15,-45,-23,10,21,-14,-14,-62,-78
1.59109807474995e+15,4,-9,-25,-47,-47,-47,41,69
1.59109807475862e+15,21,15,9,10,15,15,5,24
1.59109807475862e+15,16,-7,-10,21,-29,-29,-24,-11
1.59109807476487e+15,-58,-27,-12,-24,10,10,-32,-66
1.59109807476487e+15,103,41,9,4,38,38,51,53
1.59109807477371e+15,-86,-36,-28,-3,-46,-46,-31,-27
1.59109807477371e+15,11,-7,0,-37,-2,-2,4,-3
1.59109807478892e+15,-3,10,15,54,30,30,-28,-48
1.59109807478892e+15,12,-11,-25,-23,-36,-36,6,0
1.59109807479093e+15,39,22,8,-5,9,9,37,62
1.59109807479093e+15,17,2,14,-27,14,14,4,-23
1.59109807481197e+15,-37,8,-5,24,-5,-5,34,36
