TimeStamp,emg1,emg2,emg3,emg4,emg5,emg6,emg7,emg8
1.59111969997766e+15,2,2,8,-1,-4,-4,0,6
1.59111969997766e+15,4,-0,2,-1,-4,-4,-1,0
1.59111969998544e+15,2,-0,-7,-4,5,5,3,-2
1.59111969998544e+15,2,-1,-13,3,-1,-1,0,-3
1.59111969998707e+15,-10,-6,-9,-11,-3,-3,-3,-7
1.59111969998707e+15,-2,4,19,8,0,0,0,0
1.59111969998743e+15,1,-0,1,1,0,0,-4,0
1.59111969998743e+15,-2,-3,-5,-3,-7,-7,-2,-3
1.59111970000027e+15,4,5,6,5,3,3,2,3
1.59111970000027e+15,-6,-12,-49,-13,-8,-8,-3,-3
1.59111970000027e+15,0,-1,-11,-4,2,2,1,1
1.59111970000027e+15,-6,5,42,6,-1,-1,-4,-3
1.59111970000729e+15,-1,2,15,5,-2,-2,-2,-2
1.59111970000729e+15,-1,-0,-3,-2,3,3,-1,-2
1.59111970002229e+15,-5,-5,-12,-7,-3,-3,-2,-1
1.59111970002229e+15,-2,-0,-5,-3,2,2,0,-1
1.59111970002827e+15,1,1,-17,0,13,13,-1,3
1.59111970002827e+15,0,4,21,4,-2,-2,3,-4
1.59111970004323e+15,2,-3,-25,0,-7,-7,-1,5
1.59111970004323e+15,-1,-1,-1,-5,-1,-1,-2,0
1.59111970005525e+15,-3,-0,10,1,2,2,2,-6
1.59111970005525e+15,1,-3,-16,-5,-2,-2,3,-1
1.59111970006716e+15,0,1,14,2,-7,-7,0,-1
1.59111970006716e+15,1,-1,7,-2,-9,-9,-3,-4
1.5911197001151e+15,-1,-5,-21,-4,1,1,-9,0
1.5911197001151e+15,3,2,-1,2,4,4,-1,1
1.59111970011609e+15,-10,-8,-17,-8,-3,-3,-6,-4
1.59111970011609e+15,1,2,10,4,-2,-2,-5,1
1.59111970012806e+15,0,4,6,0,15,15,0,1
1.59111970012806e+15,1,-2,8,-2,-21,-21,-2,1
1.59111970012906e+15,0,5,2,-1,8,8,16,0
1.59111970012906e+15,0,-1,-6,-4,-3,-3,1,1
1.59111970013005e+15,0,1,7,0,2,2,1,0
1.59111970013005e+15,-5,-3,-10,0,1,1,-5,-5
1.59111970014256e+15,1,-1,0,1,-5,-5,-6,1
1.59111970014256e+15,1,-1,-9,-1,3,3,2,-3
1.59111970014341e+15,-1,-1,9,-1,-9,-9,-2,-1
1.59111970014341e+15,-3,-0,-1,-4,6,6,2,-1
1.59111970014899e+15,-1,-2,-3,1,-8,-8,-5,-1
1.59111970014899e+15,-3,1,7,1,2,2,0,0
1.59111970015644e+15,-2,-3,-5,-2,-5,-5,-2,-1
1.59111970015644e+15,-2,-0,6,-2,3,3,-1,-1
1.59111970017051e+15,0,-0,-2,2,1,1,-3,-2
1.59111970017051e+15,-3,-4,-9,-4,-5,-5,-6,-1
1.59111970017962e+15,-1,1,7,-1,-2,-2,-5,2
1.59111970017962e+15,-1,2,4,1,6,6,1,0
1.59111970019452e+15,0,-1,-4,-5,-6,-6,5,-2
1.59111970019452e+15,5,6,30,4,-9,-9,7,4
1.59111970019452e+15,-1,-8,-44,-10,1,1,3,-4
1.59111970019452e+15,0,1,7,-2,1,1,1,-4
1.59111970021701e+15,2,2,9,0,4,4,-7,0
1.59111970021701e+15,-2,-1,-5,-1,0,0,-1,-2
1.59111970021701e+15,0,4,11,8,1,1,-1,0
1.59111970021701e+15,-3,-6,-26,-4,-4,-4,-6,-2
1.59111970023095e+15,-1,-0,-1,-1,0,0,0,-2
1.59111970023095e+15,-4,-3,-6,-2,-4,-4,-1,-4
1.59111970023936e+15,-1,-0,0,1,-1,-1,1,-3
1.59111970023936e+15,0,-0,-3,-2,6,6,-7,0
1.59111970025461e+15,0,2,7,-3,-6,-6,8,0
1.59111970025461e+15,-2,-3,-12,-4,-2,-2,-4,-3
1.59111970025461e+15,0,1,1,-2,-3,-3,1,5
1.59111970025461e+15,0,-2,-2,-2,-11,-11,-1,1
1.59111970027724e+15,1,2,4,0,11,11,-1,1
1.59111970027724e+15,0,-1,-3,-2,4,4,-5,-6
1.59111970027724e+15,-2,-2,0,-1,0,0,-2,-6
1.59111970027724e+15,-2,3,16,3,-1,-1,2,-2
1.59111970029105e+15,-1,-5,-23,-2,-4,-4,-6,-2
1.59111970029105e+15,0,-0,-3,-1,-2,-2,-2,3
1.59111970029961e+15,-3,-0,5,-1,-1,-1,-1,-1
1.59111970029961e+15,0,-4,-8,-9,-8,-8,0,-2
1.59111970031414e+15,-1,4,19,4,6,6,-1,1
1.59111970031414e+15,-3,-4,-3,-3,-9,-9,-6,-2
1.59111970031514e+15,1,-0,3,0,-2,-2,-2,-1
1.59111970031514e+15,-2,1,1,-1,7,7,2,-1
1.59111970033719e+15,-2,1,10,3,-5,-5,-2,-2
1.59111970033719e+15,-5,-3,-13,-5,3,3,-2,-4
1.59111970033719e+15,0,2,10,1,-3,-3,3,1
1.59111970033719e+15,0,-0,3,2,-2,-2,-2,1
1.59111970035096e+15,-2,-4,-10,-5,-2,-2,-3,-3
1.59111970035096e+15,0,-2,-7,0,-4,-4,-6,0
1.5911197003595e+15,-4,-0,0,-4,12,12,1,-5
1.5911197003595e+15,-2,-0,-3,2,-6,-6,6,-2
1.59111970038242e+15,2,-1,-10,-1,-4,-4,-4,7
1.59111970038242e+15,-3,-0,-2,0,1,1,5,0
1.59111970038342e+15,1,3,14,2,0,0,-3,-1
1.59111970038342e+15,0,-4,-23,-4,1,1,-4,-5
1.59111970039682e+15,-3,-2,4,-1,-6,-6,-5,-5
1.59111970039682e+15,-1,-1,0,-2,-1,-1,-6,-1
1.59111970039682e+15,0,-1,-3,-3,-3,-3,-1,-5
1.59111970039682e+15,0,-1,-12,-3,8,8,-6,0
1.59111970041112e+15,-2,-1,-4,-1,-2,-2,5,-2
1.59111970041112e+15,-5,-4,-14,-5,-4,-4,0,-1
1.591119700419e+15,-1,1,-1,-1,0,0,4,1
1.591119700419e+15,2,1,-2,0,1,1,-1,2
1.59111970045899e+15,-2,-2,-5,-1,-7,-7,1,-1
1.59111970045899e+15,-1,2,4,1,4,4,0,-3
1.59111970045899e+15,-1,-1,-3,0,-3,-3,-4,3
1.59111970045899e+15,-3,1,13,-3,-4,-4,3,0
1.59111970046104e+15,1,3,25,0,-2,-2,-4,0
1.59111970046104e+15,-2,-6,-43,-5,4,4,2,-4
1.59111970046472e+15,2,-2,-5,0,-8,-8,0,-5
1.59111970046472e+15,0,-2,-8,-3,0,0,-1,-3
1.5911197004711e+15,-3,-2,-9,-3,2,2,-4,-3
1.5911197004711e+15,-2,3,22,2,-2,-2,-2,1
1.59111970047968e+15,-4,-3,-11,-3,-1,-1,-4,1
1.59111970047968e+15,-3,-0,-2,0,-2,-2,1,0
1.59111970049443e+15,0,-1,3,-1,-2,-2,-2,-3
1.59111970049443e+15,1,-1,-1,-2,-2,-2,-2,0
1.59111970049443e+15,0,2,4,-1,4,4,2,0
1.59111970049443e+15,2,2,18,2,-11,-11,0,1
1.59111970051675e+15,0,-2,-12,-1,0,0,-5,-1
1.59111970051675e+15,-1,-1,-15,-6,3,3,3,2
1.59111970051772e+15,-5,-0,20,0,-5,-5,-4,-4
1.59111970051772e+15,0,-1,-7,-1,4,4,0,-2
1.59111970053047e+15,-2,-1,0,-3,-2,-2,1,-2
1.59111970053047e+15,1,1,4,2,-3,-3,3,-1
1.59111970053942e+15,0,-2,-13,-4,-1,-1,3,-1
1.59111970053942e+15,0,-0,2,1,-3,-3,-4,-2
1.59111970055433e+15,-1,-1,-4,-2,5,5,-1,-6
1.59111970055433e+15,2,2,10,1,-10,-10,2,3
1.59111970055515e+15,0,-1,1,-1,-2,-2,-5,-2
1.59111970055515e+15,0,-0,-4,2,-1,-1,0,1
1.59111970057721e+15,-3,-1,-5,-2,0,0,0,1
1.59111970057721e+15,0,1,10,2,2,2,-4,-2
1.59111970057721e+15,-1,1,3,2,-2,-2,0,-1
1.59111970057721e+15,-3,-2,-4,0,-3,-3,-2,-2
1.59111970059066e+15,2,-0,-4,-1,-1,-1,-1,3
1.59111970059066e+15,-1,1,1,-3,5,5,2,-1
1.59111970059866e+15,-4,-3,-7,-2,-9,-9,1,-2
1.59111970059866e+15,-1,-0,4,0,-1,-1,-2,-6
1.59111970061417e+15,-3,-1,1,-2,-1,-1,-1,-2
1.59111970061417e+15,-3,-1,2,1,3,3,-5,-4
1.59111970061465e+15,-1,-1,-5,-2,0,0,-1,1
1.59111970061465e+15,-1,-1,-5,-1,1,1,-1,0
1.59111970063635e+15,2,1,3,1,-4,-4,-2,2
1.59111970063635e+15,-1,-1,0,-1,0,0,-7,-1
1.59111970063736e+15,1,-2,-10,-5,-3,-3,4,1
1.59111970063736e+15,-1,2,7,-1,3,3,1,-1
1.59111970065099e+15,-2,-0,6,2,-3,-3,0,-2
1.59111970065099e+15,-5,-3,-9,-2,-2,-2,-4,-3
1.59111970065973e+15,0,1,5,1,1,1,-2,0
1.59111970065973e+15,-1,-1,-2,-1,-2,-2,-5,2
1.59111970067456e+15,-2,-0,2,-2,-1,-1,-1,0
1.59111970067456e+15,1,2,4,0,1,1,2,0
1.59111970067456e+15,-3,-3,-8,-1,-3,-3,-4,-2
1.59111970067456e+15,-1,-0,1,0,-6,-6,5,-1
1.59111970069747e+15,-2,-2,-1,-2,1,1,-5,-2
1.59111970069747e+15,-1,1,3,-1,-1,-1,9,0
1.59111970070388e+15,0,-2,-7,-4,2,2,-7,-2
1.59111970070388e+15,-1,2,13,-1,3,3,-2,-2
1.59111970071137e+15,-1,-2,-2,0,-7,-7,-6,0
1.59111970071137e+15,1,3,5,-1,5,5,4,0
1.59111970071953e+15,1,-0,-5,-2,0,0,1,-1
1.59111970071953e+15,-3,-3,-11,-1,-5,-5,-2,-4
1.59111970073499e+15,-2,-1,-4,-2,-2,-2,1,-1
1.59111970073499e+15,-1,1,12,2,-2,-2,-8,0
1.59111970074152e+15,-1,-2,-10,1,-4,-4,-1,-2
1.59111970074152e+15,-2,-2,-13,-3,5,5,1,0
1.59111970075708e+15,1,5,20,4,2,2,3,0
1.59111970075708e+15,-4,-8,-35,-8,-2,-2,-5,-4
1.59111970075708e+15,3,3,22,1,-7,-7,-1,-1
1.59111970075708e+15,0,-1,-7,-4,0,0,-1,1
1.59111970077244e+15,1,2,-3,2,3,3,1,1
1.59111970077244e+15,0,2,8,2,-4,-4,1,4
1.59111970077968e+15,-4,-3,-13,-3,1,1,-2,-2
1.59111970077968e+15,2,-2,-31,2,3,3,2,4
1.59111970080346e+15,-13,-6,9,-10,-7,-7,-6,-8
1.59111970080346e+15,-2,1,16,5,-2,-2,-6,-5
1.59111970080346e+15,-3,1,5,1,1,1,1,-1
1.59111970080346e+15,-1,-3,-17,-2,-1,-1,0,-1
1.59111970081644e+15,2,-3,-31,-5,2,2,1,3
1.59111970081644e+15,1,-0,7,-1,-3,-3,-1,-4
1.59111970081743e+15,-1,-2,-2,-1,-1,-1,-3,-4
1.59111970081743e+15,1,-0,4,-1,-3,-3,-2,-2
1.59111970083936e+15,1,-1,-6,-3,1,1,-1,-2
1.59111970083936e+15,-1,-0,2,0,-1,-1,2,-1
1.59111970084027e+15,1,-3,-26,1,0,0,0,0
1.59111970084027e+15,-2,5,40,-1,0,0,-3,-1
1.59111970085441e+15,1,3,17,7,-3,-3,-2,1
1.59111970085441e+15,-1,-6,-28,-7,-2,-2,-2,-1
1.59111970085538e+15,-1,1,8,0,-1,-1,-1,-1
1.59111970085538e+15,-1,-0,2,-1,0,0,0,0
1.59111970087635e+15,0,-1,-16,-2,2,2,0,0
1.59111970087635e+15,0,5,22,2,1,1,-1,1
1.59111970088433e+15,-1,-0,0,0,-1,-1,-1,3
1.59111970088433e+15,-3,-3,-15,-3,-2,-2,-2,0
1.59111970089926e+15,1,1,5,0,1,1,2,-1
1.59111970089926e+15,-2,-5,-26,1,-2,-2,-1,-2
1.59111970090026e+15,-4,-1,5,-7,-2,-2,-1,0
1.59111970090026e+15,-5,2,26,3,-2,-2,-3,-4
1.59111970091408e+15,-3,-4,-10,-4,-2,-2,-3,-3
1.59111970091408e+15,1,-3,-21,-2,1,1,0,1
1.5911197009152e+15,1,5,37,1,0,0,0,-4
1.5911197009152e+15,-1,-0,0,2,-1,-1,-2,-6
1.5911197009371e+15,1,5,21,4,0,0,-1,2
1.5911197009371e+15,0,-2,-12,-1,-1,-1,-1,2
1.5911197009371e+15,3,4,15,4,1,1,1,1
1.5911197009371e+15,-8,-2,2,-2,-2,-2,-2,-4
1.59111970096036e+15,-2,-4,-17,-2,0,0,0,-6
1.59111970096036e+15,-4,-1,-3,-2,-3,-3,-1,3
1.59111970096074e+15,0,-4,-22,-3,-3,-3,-3,1
1.59111970096074e+15,0,2,15,0,-2,-2,-2,0
1.59111970097383e+15,-1,-0,0,-1,-1,-1,-1,1
1.59111970097383e+15,0,4,21,-1,-1,-1,-1,-1
1.59111970098137e+15,-2,-3,-12,-5,-2,-2,-3,-1
1.59111970098137e+15,3,-0,-9,-4,-1,-1,2,2
1.59111970099728e+15,-1,-2,-8,-1,-2,-2,-1,-4
1.59111970099728e+15,1,-1,3,-1,0,0,-2,-4
1.59111970099728e+15,-3,-2,-5,0,-2,-2,-2,-4
1.59111970099728e+15,4,2,2,0,-2,-2,-1,7
1.59111970101976e+15,-3,-4,-13,-7,-2,-2,-1,-3
1.59111970101976e+15,-2,-1,4,-2,-2,-2,0,-4
1.59111970102074e+15,-1,1,3,0,4,4,-1,-2
1.59111970102074e+15,0,-0,-1,-2,0,0,-2,-4
1.59111970103333e+15,1,-0,4,-2,-2,-2,-1,2
1.59111970103333e+15,-1,2,17,0,-2,-2,1,1
1.59111970104106e+15,-4,-6,-27,-2,-1,-1,-1,-5
1.59111970104106e+15,-1,1,3,1,-1,-1,-3,-1
1.59111970105711e+15,0,-2,-18,-2,1,1,-2,0
1.59111970105711e+15,1,-1,-11,0,0,0,0,-3
1.59111970105711e+15,-2,8,43,6,-2,-2,3,2
1.59111970105711e+15,-2,-6,-28,-6,-2,-2,-2,-3
1.59111970107932e+15,0,-0,3,-3,-3,-3,1,-1
1.59111970107932e+15,-1,-0,4,-1,-1,-1,-2,-1
1.59111970108636e+15,3,-1,-8,0,0,0,-3,-2
1.59111970108636e+15,1,1,4,1,-1,-1,1,1
1.59111970110953e+15,-3,-0,6,1,-2,-2,-2,0
1.59111970110953e+15,1,-1,-3,-1,-1,-1,-3,0
1.59111970111141e+15,1,-1,-4,-1,-1,-1,-2,-2
1.59111970111141e+15,-5,-2,-8,-3,-1,-1,-3,-2
1.59111970111545e+15,-2,-0,-6,2,2,2,-2,-2
1.59111970111545e+15,-4,-0,4,-2,-2,-2,0,-2
1.59111970113131e+15,-3,-0,7,-1,-2,-2,0,-2
1.59111970113131e+15,-3,-4,-12,-3,-2,-2,-1,-5
1.59111970113929e+15,3,2,1,0,-2,-2,2,5
1.59111970113929e+15,-2,-0,1,-2,-2,-2,-1,0
1.59111970114639e+15,0,-1,-1,-2,-2,-2,-2,0
1.59111970114639e+15,-1,-0,0,-3,0,0,-2,-2
1.59111970116199e+15,0,2,7,0,-1,-1,-1,-2
1.59111970116199e+15,-1,-0,5,1,1,1,-3,-4
1.59111970116375e+15,-1,-1,-10,-1,-1,-1,-3,0
1.59111970116375e+15,1,2,3,1,-1,-1,1,0
1.59111970117532e+15,0,-1,-3,-1,-2,-2,0,-3
1.59111970117532e+15,0,1,3,-2,0,0,1,-1
1.59111970118454e+15,-4,-3,-7,-2,-1,-1,-3,-3
1.59111970118454e+15,-3,-0,5,-1,0,0,-5,1
1.59111970119949e+15,-3,-0,4,-2,-2,-2,-2,0
1.59111970119949e+15,-1,-2,-6,-3,-2,-2,-2,-3
1.59111970121321e+15,2,1,-4,-1,1,1,1,6
1.59111970121321e+15,3,1,0,0,-3,-3,0,1
1.59111970122219e+15,0,-0,-3,-3,2,2,0,-3
1.59111970122219e+15,1,-1,-2,-2,-4,-4,-1,-1
1.59111970122418e+15,-2,-2,-5,-3,-2,-2,0,-2
1.59111970122418e+15,-2,-2,1,-2,3,3,-2,-10
1.59111970124431e+15,0,-1,-3,1,-5,-5,-7,5
1.59111970124431e+15,-1,-0,-3,-2,6,6,1,-2
1.59111970124592e+15,-2,-0,-1,-2,-1,-1,-1,3
1.59111970124592e+15,-1,1,0,1,3,3,2,-1
1.59111970125972e+15,-3,-1,1,0,-10,-10,7,-5
1.59111970125972e+15,0,2,0,0,11,11,4,0
1.59111970126564e+15,0,-3,-2,0,-11,-11,-10,1
1.59111970126564e+15,0,1,-4,-5,5,5,3,-2
1.59111970128154e+15,2,-1,-2,-1,6,6,-12,-4
1.59111970128154e+15,0,-2,-4,-3,-17,-17,0,5
1.59111970128975e+15,-1,6,1,0,9,9,26,0
1.59111970128975e+15,-3,-5,-1,-2,-9,-9,-18,-3
1.59111970130524e+15,-5,5,-1,-1,15,15,24,-1
1.59111970130524e+15,-6,-4,3,1,-5,-5,-10,-13
1.59111970130625e+15,3,-1,-7,-1,-3,-3,-11,13
1.59111970130625e+15,2,-0,-1,2,-10,-10,-7,9
1.59111970131871e+15,-1,1,0,0,3,3,3,-2
1.59111970131871e+15,-13,-10,1,0,-2,-2,-40,-20
1.59111970132626e+15,3,-8,-7,-5,-13,-13,-41,5
1.59111970132626e+15,-7,18,-2,-2,36,36,83,14
1.59111970134985e+15,-5,4,-1,1,0,0,8,18
1.59111970134985e+15,29,-0,-1,-2,-18,-18,-16,11
1.59111970135081e+15,-8,4,-3,-2,29,29,19,-9
1.59111970135081e+15,-11,-23,-4,0,-48,-48,-74,-24
1.59111970136534e+15,-8,15,12,6,31,31,27,29
1.59111970136534e+15,2,-6,-6,-1,-12,-12,-31,1
1.59111970136636e+15,-13,7,-10,-4,2,2,77,-8
1.59111970136636e+15,30,10,4,0,15,15,-2,18
1.59111970137905e+15,28,-5,4,-4,-19,-19,-16,-25
1.59111970137905e+15,-23,-4,5,5,0,0,-19,-6
1.59111970138703e+15,-21,-11,-7,-1,-4,-4,-42,-1
1.59111970138703e+15,-1,9,-3,-1,1,1,53,9
1.59111970140993e+15,-2,-5,-6,-3,-11,-11,-21,1
1.59111970140993e+15,8,-10,3,-3,-2,-2,-55,-19
1.59111970141752e+15,-1,16,1,-2,-11,-11,64,58
1.59111970141752e+15,-1,-10,-3,-1,12,12,-21,-58
1.5911197014245e+15,20,-3,-8,-3,-11,-11,-57,37
1.5911197014245e+15,8,24,11,8,30,30,79,24
1.5911197014265e+15,-2,4,-7,-5,-14,-14,28,31
1.5911197014265e+15,-2,1,3,-2,-24,-24,-7,42
1.59111970143795e+15,-6,-7,-6,-2,-3,-3,-5,-31
1.59111970143795e+15,-10,-3,2,1,7,7,41,-59
1.5911197014474e+15,28,9,7,-3,14,14,-43,54
1.5911197014474e+15,2,1,1,-1,6,6,5,-8
1.59111970146238e+15,-13,-7,-8,-2,-13,-13,4,-22
1.59111970146238e+15,-21,-12,-5,-4,-24,-24,-27,-1
1.59111970146437e+15,15,-4,5,3,-2,-2,-10,-38
1.59111970146437e+15,-4,-17,-2,-2,-16,-16,-73,-22
1.59111970148455e+15,-9,-9,7,0,-27,-27,-35,-5
1.59111970148455e+15,32,31,-9,-7,43,43,60,88
1.59111970148579e+15,-2,-3,9,5,-31,-31,-10,1
1.59111970148579e+15,-15,-10,-2,-8,8,8,-25,-24
1.59111970149842e+15,6,3,-11,2,5,5,-17,39
1.59111970149842e+15,-6,-28,-14,-9,-66,-66,-118,25
1.59111970150723e+15,87,49,11,5,88,88,83,51
1.59111970150723e+15,8,-7,16,8,0,0,-75,-24
1.59111970153037e+15,-8,-20,1,-3,5,5,-70,-55
1.59111970153037e+15,-6,-0,-5,0,17,17,3,-16
1.59111970153078e+15,-36,-20,-1,-2,-23,-23,-43,-34
1.59111970153078e+15,1,6,-3,-3,-10,-10,27,22
1.59111970154502e+15,0,5,-3,-4,13,13,42,-10
1.59111970154502e+15,-15,-6,-8,-6,-27,-27,18,8
1.59111970154682e+15,-27,-21,-6,-2,-16,-16,-40,-55
1.59111970154682e+15,-8,-5,-3,1,18,18,-11,-41
1.591119701558e+15,-3,11,-1,0,-20,-20,37,61
1.591119701558e+15,-8,-6,1,0,-1,-1,4,-38
1.59111970156757e+15,-14,-11,-1,-1,-14,-14,-78,27
1.59111970156757e+15,4,-11,-1,0,2,2,-29,-59
1.59111970158315e+15,19,25,5,2,22,22,82,40
1.59111970158315e+15,-4,4,0,-2,35,35,0,-3
1.59111970158415e+15,-7,-2,-1,2,4,4,-7,-4
1.59111970158415e+15,-10,-4,-8,-1,-22,-22,-4,17
1.59111970160517e+15,-10,-15,0,-1,-20,-20,-31,-38
1.59111970160517e+15,8,10,0,-3,17,17,38,8
1.59111970160618e+15,-11,-13,-2,-2,-19,-19,-21,-37
1.59111970160618e+15,-1,9,6,-2,-1,-1,29,30
1.59111970161844e+15,-3,-6,-15,-6,2,2,-2,-16
1.59111970161844e+15,3,2,4,11,-5,-5,-4,3
1.59111970162698e+15,-8,-7,-6,-10,-2,-2,-7,-27
1.59111970162698e+15,-4,5,5,2,-8,-8,13,19
1.59111970164186e+15,-1,1,4,-9,9,9,2,2
1.59111970164186e+15,1,4,31,17,-6,-6,-5,-8
1.59111970164407e+15,-12,-15,-48,-14,-8,-8,-8,-24
1.59111970164407e+15,3,5,-24,-21,14,14,31,24
1.59111970167272e+15,-5,-4,-14,11,-6,-6,-16,-11
1.59111970167272e+15,1,5,20,8,2,2,2,1
1.59111970167372e+15,7,-2,-16,0,1,1,4,-6
1.59111970167372e+15,0,3,15,-3,-4,-4,5,14
1.59111970168792e+15,-12,-6,8,-6,-2,-2,-10,-16
1.59111970168792e+15,-2,-15,-65,-28,-6,-6,0,-5
1.59111970168893e+15,2,15,71,19,7,7,4,-3
1.59111970168893e+15,-2,4,38,3,-6,-6,-1,6
1.59111970170272e+15,-3,-7,-5,-16,-7,-7,-10,-7
1.59111970170272e+15,-1,-1,-4,-2,1,1,1,0
1.59111970170348e+15,-6,-2,-33,33,-1,-1,-9,-8
1.59111970170348e+15,1,-3,-45,-6,2,2,6,8
1.59111970172521e+15,-3,1,5,12,1,1,-6,-5
1.59111970172521e+15,-2,-3,5,-15,-3,-3,-3,-2
1.59111970172594e+15,-3,6,75,-12,-4,-4,-5,-8
1.59111970172594e+15,-4,2,17,8,-4,-4,-1,1
1.59111970173901e+15,-2,-2,-6,-4,2,2,-1,-3
1.59111970173901e+15,-1,-5,-34,-8,-3,-3,-1,-4
1.59111970174736e+15,2,-3,-18,-3,-3,-3,-1,-4
1.59111970174736e+15,1,2,1,2,1,1,5,3
1.5911197017625e+15,1,-3,-12,-5,-1,-1,-3,-2
1.5911197017625e+15,0,2,7,6,-2,-2,0,1
1.59111970176862e+15,-1,-2,-1,-6,-3,-3,-2,-4
1.59111970176862e+15,-1,-1,-12,-1,-2,-2,-2,2
1.59111970178423e+15,-1,-1,-5,1,-1,-1,-2,-4
1.59111970178423e+15,-2,2,17,4,0,0,0,-2
1.59111970180821e+15,-2,-3,-7,-6,-1,-1,-1,-3
1.59111970180821e+15,-3,-1,-12,-2,0,0,0,1
1.59111970180821e+15,-2,1,11,3,0,0,-3,-6
1.59111970180821e+15,-1,3,11,0,-1,-1,2,5
1.59111970181388e+15,0,-5,-15,-8,-3,-3,-4,-4
1.59111970181388e+15,1,1,-4,5,-1,-1,0,2
1.59111970182239e+15,0,2,8,4,-2,-2,0,-1
1.59111970182239e+15,-1,-0,-1,-3,-2,-2,-1,-1
1.59111970182946e+15,-1,-3,-10,-5,-1,-1,1,-3
1.59111970182946e+15,-1,-1,-1,-2,0,0,2,-5
1.59111970184549e+15,-2,1,7,-1,0,0,1,-3
1.59111970184549e+15,-4,-1,2,1,1,1,-3,-5
1.59111970184649e+15,1,3,10,4,1,1,-1,2
1.59111970184649e+15,-4,-1,0,-3,-1,-1,-5,0
1.59111970185895e+15,-5,-5,-17,-5,-2,-2,-4,-3
1.59111970185895e+15,-1,-0,4,-1,0,0,-2,-3
1.59111970186694e+15,-1,-0,4,-2,1,1,-1,-3
1.59111970186694e+15,2,7,32,5,1,1,4,-2
1.5911197018819e+15,0,-0,-14,5,1,1,-2,4
1.5911197018819e+15,0,-1,-4,0,-1,-1,-3,0
1.59111970188389e+15,-2,-0,11,-3,-2,-2,-1,0
1.59111970188389e+15,0,7,37,15,-1,-1,-2,-4
1.59111970190485e+15,-9,-20,-82,-35,-4,-4,-2,-9
1.59111970190485e+15,0,3,16,1,3,3,-1,-3
1.59111970190586e+15,-3,-5,-24,-6,0,0,-3,-2
1.59111970190586e+15,-2,-6,-20,-8,-2,-2,0,-4
1.59111970192689e+15,3,4,3,5,1,1,4,5
1.59111970192689e+15,-3,3,21,13,-3,-3,-2,-3
1.59111970192889e+15,-9,-3,9,-5,-3,-3,-3,-6
1.59111970192889e+15,3,-0,-14,-3,1,1,0,4
1.5911197019427e+15,-3,9,59,12,0,0,-1,-10
1.5911197019427e+15,6,-2,-23,-10,-2,-2,4,9
1.59111970194371e+15,2,1,12,2,-4,-4,-4,1
1.59111970194371e+15,7,-4,-38,-8,2,2,-1,1
1.59111970196507e+15,-6,8,51,2,1,1,-2,2
1.59111970196507e+15,-2,-1,12,6,-3,-3,-4,-10
1.59111970196707e+15,0,-3,-20,-7,0,0,2,0
1.59111970196707e+15,0,2,13,-1,-2,-2,0,1
1.59111970197838e+15,9,11,42,10,2,2,2,3
1.59111970197838e+15,2,1,2,6,-1,-1,0,-1
1.59111970198747e+15,1,-6,-19,-12,-5,-5,-4,-4
1.59111970198747e+15,-8,-5,-31,-4,1,1,0,0
1.59111970200185e+15,-6,-1,-6,3,0,0,-1,0
1.59111970200185e+15,-8,-4,-10,-9,-1,-1,0,-2
1.59111970200894e+15,-4,-12,-79,-3,0,0,0,0
1.59111970200894e+15,-8,7,56,10,-3,-3,0,-7
1.5911197020251e+15,2,2,9,6,-1,-1,-1,-1
1.5911197020251e+15,0,-0,24,-18,-2,-2,-1,-1
1.5911197020261e+15,5,1,-10,3,1,1,1,5
1.5911197020261e+15,-8,-4,14,-4,-7,-7,-7,-6
1.59111970204699e+15,1,-4,-20,-3,0,0,-2,0
1.59111970204699e+15,-12,-12,-55,1,0,0,-4,-15
1.59111970204899e+15,-1,-7,-39,-13,-2,-2,-1,8
1.59111970204899e+15,6,3,7,-2,1,1,-1,1
1.591119702061e+15,-5,-5,-11,-7,-4,-4,-2,-4
1.591119702061e+15,3,8,44,5,1,1,0,-2
1.59111970206993e+15,2,-11,-58,-7,-5,-5,-2,-5
1.59111970206993e+15,6,14,81,9,-4,-4,-1,9
1.59111970208533e+15,0,3,13,4,1,1,2,-4
1.59111970208533e+15,3,3,9,0,-2,-2,1,3
1.59111970208672e+15,6,-5,-62,4,5,5,5,-2
1.59111970208672e+15,-17,-1,45,-9,-6,-6,-5,-7
1.59111970209876e+15,5,1,-2,5,1,1,-2,1
1.59111970209876e+15,3,-1,-9,2,-3,-3,-2,2
1.59111970210728e+15,-2,11,79,1,-1,-1,-1,-1
1.59111970210728e+15,8,-6,-60,-5,3,3,3,0
1.59111970212183e+15,-5,-19,-110,-12,-2,-2,-2,-1
1.59111970212183e+15,9,16,75,21,2,2,1,3
1.59111970212914e+15,-10,-17,-63,-20,-7,-7,-4,-8
1.59111970212914e+15,0,2,2,11,-2,-2,1,0
1.5911197021454e+15,-6,-6,-26,-19,0,0,1,3
1.5911197021454e+15,13,17,53,28,1,1,4,6
1.59111970214644e+15,-18,-10,-25,-1,-7,-7,-4,-12
1.59111970214644e+15,-2,-5,-9,-18,-3,-3,-1,-2
1.59111970215876e+15,3,-2,-24,-8,4,4,2,4
1.59111970215876e+15,5,-1,-37,-3,18,18,-8,10
1.59111970216741e+15,5,9,82,18,-40,-40,7,-1
1.59111970216741e+15,3,-7,-42,-11,7,7,-2,-7
1.59111970218194e+15,5,2,16,5,-7,-7,2,-4
1.59111970218194e+15,-7,-12,-46,-17,0,0,-9,2
1.59111970218896e+15,-6,6,46,10,-1,-1,-7,-2
1.59111970218896e+15,-9,-11,-57,-4,-1,-1,-1,-7
1.59111970220531e+15,-1,-0,32,-7,-8,-8,-6,-5
1.59111970220531e+15,-1,1,-6,7,-4,-4,5,-2
1.59111970220576e+15,6,10,33,5,12,12,3,5
1.59111970220576e+15,-2,-5,-54,17,-4,-4,5,-3
1.59111970222704e+15,-10,-11,-26,-41,3,3,-2,-4
1.59111970222704e+15,-6,-14,-58,-9,-12,-12,-1,-8
1.59111970222904e+15,6,16,96,14,2,2,-4,1
1.59111970222904e+15,12,6,6,13,2,2,-1,6
1.59111970224117e+15,14,13,46,11,3,3,0,8
1.59111970224117e+15,-5,-13,-52,-20,-7,-7,-4,-6
1.59111970224831e+15,0,-1,-13,-2,4,4,1,-1
1.59111970224831e+15,1,-11,10,-48,-12,-12,-5,-3
1.59111970226503e+15,-8,7,-2,33,8,8,4,1
1.59111970226503e+15,14,18,11,31,10,10,12,9
1.59111970226603e+15,-28,-20,-54,5,-7,-7,-15,-18
1.59111970226603e+15,-5,-2,-6,-24,1,1,-1,0
1.59111970228796e+15,1,-1,12,-3,-5,-5,-2,-2
1.59111970228796e+15,-10,-8,-8,-17,-5,-5,0,-3
1.59111970228928e+15,9,10,31,4,5,5,3,10
1.59111970228928e+15,-3,1,-9,9,0,0,-1,5
1.5911197023014e+15,-3,-5,-1,-6,-9,-9,-7,-3
1.5911197023014e+15,-8,-3,-6,-11,1,1,-2,-5
1.59111970231007e+15,1,-6,-3,-44,10,10,-1,0
1.59111970231007e+15,-1,4,-3,26,-5,-5,-7,0
1.59111970233244e+15,7,13,28,32,9,9,5,-1
1.59111970233244e+15,-3,-3,2,-20,-8,-8,1,-2
1.5911197023335e+15,1,8,16,22,13,13,-12,1
1.5911197023335e+15,-2,-5,-14,-1,-20,-20,3,2
1.59111970234697e+15,-5,-17,-20,-26,-31,-31,-9,-6
1.59111970234697e+15,-5,1,5,4,12,12,4,-1
1.59111970234897e+15,-5,-0,-6,-14,9,9,7,-1
1.59111970234897e+15,1,10,13,11,17,17,-5,2
1.59111970236251e+15,2,5,18,15,3,3,-11,-1
1.59111970236251e+15,1,-18,-2,-57,-22,-22,-3,-5
1.59111970236909e+15,2,14,21,35,6,6,2,-3
1.59111970236909e+15,-1,4,-6,24,7,7,1,-3
1.59111970238475e+15,-4,-1,-8,-11,-1,-1,5,6
1.59111970238475e+15,0,-0,-9,11,1,1,-8,-3
1.59111970239244e+15,4,3,15,-10,3,3,5,2
1.59111970239244e+15,3,4,23,11,-10,-10,-3,2
1.59111970240765e+15,-4,-4,-19,-26,31,31,-4,1
1.59111970240765e+15,-4,1,11,15,-33,-33,16,1
1.59111970240865e+15,0,-1,-7,7,-7,-7,-2,0
1.59111970240865e+15,-8,-2,-9,3,-8,-8,8,-3
1.59111970242141e+15,-3,2,9,5,9,9,-11,-3
1.59111970242141e+15,3,1,4,3,2,2,-2,0
1.59111970242967e+15,12,-8,3,-38,-27,-27,-11,8
1.59111970242967e+15,-5,5,-19,24,21,21,6,-10
1.59111970244586e+15,-2,13,11,27,15,15,26,-2
1.59111970244586e+15,0,7,10,25,15,15,4,-3
1.5911197024472e+15,-4,-7,-34,-4,-10,-10,-2,2
1.5911197024472e+15,-9,-8,14,-39,8,8,-35,6
1.59111970246745e+15,-7,-1,-8,15,6,6,2,-13
1.59111970246745e+15,5,1,5,7,-27,-27,8,-3
1.5911197024684e+15,-4,-1,4,-2,7,7,0,-6
1.5911197024684e+15,1,-1,22,-5,-18,-18,-6,1
1.59111970248113e+15,-5,-9,-24,-14,3,3,-21,-1
1.59111970248113e+15,2,-10,-23,-24,-16,-16,-15,7
1.59111970248997e+15,1,6,3,6,16,16,16,-8
1.59111970248997e+15,5,2,14,-3,1,1,10,1
1.59111970250525e+15,-6,-5,-17,-10,-19,-19,2,-1
1.59111970250525e+15,-5,6,9,18,10,10,-4,-1
1.59111970250603e+15,-3,-4,-15,15,-17,-17,-18,5
1.59111970250603e+15,1,-4,-8,-1,1,1,-1,-1
1.5911197025279e+15,3,5,7,20,-4,-4,-21,-3
1.5911197025279e+15,9,5,-2,2,9,9,3,-5
1.59111970252903e+15,-23,-4,-10,-2,2,2,3,-2
1.59111970252903e+15,-6,-5,-12,-10,4,4,-11,-3
1.59111970254061e+15,-2,-12,0,-19,-44,-44,11,-2
1.59111970254061e+15,-4,-3,-11,-10,11,11,-19,0
1.59111970254939e+15,2,7,18,9,13,13,26,-5
1.59111970254939e+15,2,-7,-7,-41,2,2,12,0
1.59111970256497e+15,2,10,4,18,7,7,6,8
1.59111970256497e+15,-6,-0,15,19,-7,-7,-8,-1
1.59111970256598e+15,1,-4,-10,-21,13,13,-13,-2
1.59111970256598e+15,4,2,-10,-2,1,1,18,0
1.59111970258737e+15,2,7,18,17,-3,-3,-1,-2
1.59111970258737e+15,-11,-12,-23,-25,-8,-8,-2,-6
1.59111970258916e+15,5,-8,-12,-13,0,0,-35,3
1.59111970258916e+15,-7,3,-6,13,10,10,3,-1
1.59111970260103e+15,8,-10,7,-16,-40,-40,-27,3
1.59111970260103e+15,-3,12,8,11,9,9,57,-6
1.59111970260946e+15,6,-2,0,-11,-16,-16,14,2
1.59111970260946e+15,9,-1,-12,-5,3,3,-11,1
1.59111970262546e+15,-4,-2,8,-24,2,2,15,-1
1.59111970262546e+15,-8,6,21,0,42,42,-25,-3
1.59111970262641e+15,-7,5,-23,50,-22,-22,14,1
1.59111970262641e+15,3,-12,1,-38,-25,-25,-2,-1
1.59111970264682e+15,9,5,3,3,7,7,-1,10
1.59111970264682e+15,3,11,2,28,10,10,-9,2
1.59111970265471e+15,5,2,9,-2,8,8,2,-4
1.59111970265471e+15,-3,-0,12,24,-35,-35,-29,0
1.5911197026611e+15,-1,-6,-18,5,-14,-14,-7,0
1.5911197026611e+15,-5,1,0,-23,41,41,35,-7
1.59111970267018e+15,2,-5,0,-32,-17,-17,14,-1
1.59111970267018e+15,0,9,5,30,4,4,7,-1
1.59111970268506e+15,-3,-1,20,-4,-5,-5,-16,-2
1.59111970268506e+15,6,-10,-35,-14,-18,-18,-11,9
1.59111970268606e+15,-2,-5,-1,-11,-10,-10,-2,-6
1.59111970268606e+15,-23,-3,-1,1,13,13,-4,-9
1.5911197027074e+15,-9,-3,-9,18,-4,-4,-6,-12
1.5911197027074e+15,-1,-1,14,-24,-1,-1,-2,1
1.59111970270844e+15,7,2,7,5,-6,-6,-10,1
1.59111970270844e+15,6,6,-6,1,22,22,-10,5
1.59111970272184e+15,3,9,2,19,7,7,15,7
1.59111970272184e+15,-9,-9,-24,-27,5,5,26,-19
1.59111970272971e+15,8,-1,13,-4,-12,-12,-5,-2
1.59111970272971e+15,-9,2,-3,11,-7,-7,5,0
1.59111970274461e+15,-1,-0,8,15,-9,-9,-19,1
1.59111970274461e+15,-1,-9,-10,-8,-13,-13,-19,-5
1.59111970275066e+15,3,4,3,-2,42,42,-22,5
1.59111970275066e+15,4,5,14,-6,4,4,35,-3
1.59111970276728e+15,-2,-9,-23,-48,16,16,10,-1
1.59111970276728e+15,7,11,9,51,-11,-11,-9,8
1.59111970276922e+15,-3,-8,-16,-9,-9,-9,-19,0
1.59111970276922e+15,0,-3,-1,-4,-5,-5,-3,-2
1.59111970278114e+15,-5,1,2,-22,23,23,15,8
1.59111970278114e+15,-12,-5,-7,5,-28,-28,18,-17
1.59111970279735e+15,-18,-0,-2,9,2,2,22,-2
1.59111970279735e+15,8,3,13,-2,6,6,-9,0
1.59111970280544e+15,5,5,1,-13,22,22,-1,2
1.59111970280544e+15,7,-4,-14,5,-10,-10,-53,11
1.59111970280645e+15,11,14,5,21,0,0,47,-2
1.59111970280645e+15,0,-9,-17,-30,3,3,12,-11
1.59111970282797e+15,-20,-2,20,25,-12,-12,-6,-15
1.59111970282797e+15,-6,-7,10,-1,-18,-18,-26,-4
1.59111970282908e+15,-13,-24,-39,-44,-10,-10,-27,-5
1.59111970282908e+15,19,-2,-10,-21,-21,-21,7,19
1.59111970284112e+15,20,14,8,10,31,31,-5,3
1.59111970284112e+15,-3,9,17,34,-2,-2,5,-16
1.59111970284953e+15,-9,4,17,19,1,1,-8,0
1.59111970284953e+15,32,-4,-14,-5,-15,-15,-17,-8
1.5911197028653e+15,-30,-0,0,2,-3,-3,37,8
1.5911197028653e+15,-28,-18,4,-45,-26,-26,-6,-1
1.59111970286635e+15,-7,10,11,16,45,45,-8,-6
1.59111970286635e+15,-11,-0,8,7,1,1,-4,-5
1.59111970288789e+15,40,-0,-45,-10,-2,-2,-3,5
1.59111970288789e+15,21,3,4,2,-5,-5,-11,3
1.5911197028889e+15,0,10,19,-3,15,15,15,10
1.5911197028889e+15,12,2,-17,13,1,1,2,3
1.59111970290063e+15,-17,-11,3,-12,-1,-1,-15,-15
1.59111970290063e+15,-20,-8,-15,-8,-8,-8,20,-8
1.59111970290947e+15,37,-23,3,-15,-43,-43,-99,-24
1.59111970290947e+15,-30,-8,-7,-2,-21,-21,-1,-1
1.59111970294012e+15,-26,4,3,-3,11,11,49,-12
1.59111970294012e+15,-16,-6,-42,2,6,6,-23,6
1.59111970294113e+15,-12,34,57,33,51,51,62,9
1.59111970294113e+15,10,11,16,-3,10,10,11,10
1.59111970294792e+15,13,4,-14,28,-19,-19,-5,10
1.59111970294792e+15,13,-3,-3,-20,11,11,13,-7
1.59111970294893e+15,10,-16,-32,4,-44,-44,-34,-9
1.59111970294893e+15,2,11,15,10,27,27,14,-4
1.59111970296106e+15,4,-9,-4,-29,0,0,-14,-13
1.59111970296106e+15,-21,-1,-41,0,18,18,9,9
1.59111970296966e+15,-7,-10,4,-34,-13,-13,16,-19
1.59111970296966e+15,-30,-4,29,42,-14,-14,-28,-33
1.59111970298446e+15,-22,-29,-91,-20,-26,-26,-30,-14
1.59111970298446e+15,15,17,88,23,14,14,-45,13
1.59111970299153e+15,-9,12,64,-17,-16,-16,41,28
1.59111970299153e+15,14,18,67,15,4,4,-17,23
1.59111970300665e+15,9,19,11,7,57,57,41,6
1.59111970300665e+15,14,3,-44,-10,2,2,34,17
1.59111970301473e+15,21,-1,-83,19,7,7,-5,17
1.59111970301473e+15,2,-17,-115,-25,-3,-3,1,15
1.59111970302124e+15,5,-9,106,10,-52,-52,-101,-23
1.59111970302124e+15,-1,-27,-63,-29,-1,-1,-97,17
1.59111970302958e+15,-9,23,72,2,4,4,100,-12
1.59111970302958e+15,-17,-8,-31,-7,-7,-7,8,-1
1.59111970304473e+15,1,-12,-77,-4,3,3,-18,1
1.59111970304473e+15,32,19,8,25,19,19,16,7
1.59111970305085e+15,30,9,80,24,-33,-33,-51,2
1.59111970305085e+15,-18,-20,-47,-9,25,25,-70,-31
1.5911197030661e+15,-3,-0,-35,-27,20,20,105,-39
1.5911197030661e+15,-23,-4,19,-2,24,24,-10,-28
1.59111970308317e+15,-28,-16,-93,-12,-13,-13,-2,18
1.59111970308317e+15,7,-4,-26,-2,-3,-3,8,0
1.59111970308416e+15,5,-10,-22,22,-36,-36,-94,32
1.59111970308416e+15,2,14,41,-13,-19,-19,56,39
1.59111970309014e+15,-10,13,0,-1,19,19,90,3
1.59111970309014e+15,-3,-7,1,-11,-7,-7,-35,-5
1.59111970310311e+15,-2,3,10,-3,1,1,11,6
1.59111970310311e+15,1,-4,28,-16,-24,-24,0,-15
1.59111970311209e+15,-6,-13,-8,8,-1,-1,-80,-8
1.59111970311209e+15,15,13,72,20,-47,-47,27,-3
1.59111970312708e+15,-20,-37,-82,-26,6,6,-113,3
1.59111970312708e+15,-27,8,5,-11,37,37,103,-42
1.59111970312908e+15,27,37,87,14,25,25,29,70
1.59111970312908e+15,-15,-15,-5,-21,1,1,-57,-5
1.59111970314115e+15,5,1,31,-10,-4,-4,-24,6
1.59111970314115e+15,16,-2,71,41,-43,-43,-92,-15
1.59111970314974e+15,-2,-12,61,32,-31,-31,-128,-32
1.59111970314974e+15,-23,-12,-38,-36,43,43,-5,-18
1.59111970316474e+15,17,17,-7,-8,-10,-10,116,13
1.59111970316474e+15,-17,-5,-45,-41,24,24,71,-13
1.59111970317111e+15,11,7,-97,10,14,14,96,8
1.59111970317111e+15,-24,-1,28,21,-11,-11,-36,11
1.59111970318795e+15,-11,-49,-64,-9,-84,-84,-127,-26
1.59111970318795e+15,14,13,14,27,40,40,-29,5
1.59111970318896e+15,-6,3,22,7,5,5,-4,-9
1.59111970318896e+15,10,13,86,8,13,13,-29,9
1.59111970321081e+15,-21,15,-49,-27,53,53,127,10
1.59111970321081e+15,8,-15,12,-6,-49,-49,-65,-1
1.59111970321586e+15,2,-15,-75,-21,14,14,-33,-9
1.59111970321586e+15,-4,-12,-1,6,-18,-18,-37,-21
1.59111970322473e+15,36,10,87,38,-4,-4,-112,8
1.59111970322473e+15,-14,36,75,27,16,16,102,44
1.59111970323038e+15,-17,-32,-111,-36,7,7,-57,-11
1.59111970323038e+15,14,-1,-33,0,-12,-12,21,11
1.59111970324745e+15,11,10,0,17,16,16,7,9
1.59111970324745e+15,3,-29,-68,-19,10,10,-106,-32
1.59111970324851e+15,-16,2,27,8,-13,-13,9,-6
1.59111970324851e+15,1,-9,-59,-12,-13,-13,37,-11
1.59111970326941e+15,-11,16,57,-15,20,20,85,-7
1.59111970326941e+15,25,8,-4,23,-13,-13,-17,21
1.59111970327736e+15,-11,-2,67,-2,19,19,-55,-26
1.59111970327736e+15,14,3,-50,-27,21,21,30,8
1.59111970328501e+15,-3,1,10,-4,-5,-5,6,9
1.59111970328501e+15,-32,-9,65,10,-30,-30,-42,-30
1.59111970328601e+15,-27,-22,-31,-8,-12,-12,-55,-14
1.59111970328601e+15,-2,9,-11,11,-12,-12,82,-5
1.59111970330793e+15,2,5,8,1,5,5,3,13
1.59111970330793e+15,7,-4,-52,-12,-4,-4,8,6
1.59111970330894e+15,15,-2,-3,-8,-8,-8,0,-6
1.59111970330894e+15,-28,3,28,10,11,11,-3,-6
1.59111970332988e+15,6,2,32,7,-14,-14,-18,-6
1.59111970332988e+15,2,-11,-51,-30,1,1,9,0
1.59111970333163e+15,3,3,-13,8,2,2,17,1
1.59111970333163e+15,14,4,-5,-1,3,3,-8,6
1.59111970335269e+15,-6,3,42,-7,-4,-4,-9,0
1.59111970335269e+15,-6,-2,-2,33,-16,-16,-12,-10
1.5911197033537e+15,18,-1,-26,-27,4,4,11,10
1.5911197033537e+15,11,11,45,11,-4,-4,0,13
1.59111970336711e+15,-34,-0,17,15,5,5,-7,-15
1.59111970336711e+15,9,-2,-11,-22,-6,-6,4,13
1.59111970337366e+15,3,-2,-23,-1,-5,-5,9,5
1.59111970337366e+15,18,-3,-4,-16,-5,-5,-15,0
1.59111970339005e+15,-1,-0,21,-2,-9,-9,0,-1
1.59111970339005e+15,-22,-7,-28,3,5,5,-7,-5
1.59111970339176e+15,1,-3,1,-19,-5,-5,2,4
1.59111970339176e+15,-35,5,24,21,10,10,8,-16
1.59111970340376e+15,18,5,1,6,3,3,8,5
1.59111970340376e+15,7,-3,-14,-32,0,0,7,5
1.59111970341071e+15,-9,2,8,18,-2,-2,1,-4
1.59111970341071e+15,7,-1,4,-5,-2,-2,-7,-1
1.59111970342667e+15,6,-1,-2,18,-3,-3,-15,-3
1.59111970342667e+15,-15,-12,-26,-24,1,1,-4,-12
1.59111970342867e+15,5,-0,10,-6,-3,-3,-10,2
1.59111970342867e+15,5,4,18,10,-4,-4,-6,-1
1.59111970344945e+15,-30,-2,1,6,-1,-1,9,-8
1.59111970344945e+15,20,-2,-2,-9,-18,-18,-1,3
1.59111970345144e+15,-13,-1,-12,3,12,12,7,-11
1.59111970345144e+15,2,-8,-32,3,-9,-9,-12,1
1.5911197034648e+15,-4,-2,4,-12,2,2,-1,-6
1.5911197034648e+15,12,19,56,24,6,6,12,10
1.59111970347837e+15,7,-2,-27,-16,2,2,13,2
1.59111970347837e+15,2,3,1,18,-2,-2,3,2
1.59111970348731e+15,-13,-5,3,-17,-6,-6,-15,-8
1.59111970348731e+15,7,4,-6,4,3,3,6,7
1.59111970348906e+15,10,2,10,11,-6,-6,-5,-3
1.59111970348906e+15,-10,-8,-19,-14,-2,-2,-8,-3
1.5911197035104e+15,-7,-1,0,-3,-2,-2,4,-3
1.5911197035104e+15,-4,1,18,0,0,0,-6,-10
1.59111970351165e+15,-11,1,14,3,-1,-1,-4,6
1.59111970351165e+15,-8,-3,-1,-7,-1,-1,1,-2
1.59111970352447e+15,23,2,-14,-1,5,5,-6,-1
1.59111970352447e+15,-3,-1,-12,-2,-1,-1,4,6
1.59111970353131e+15,-2,-13,-3,-13,-20,-20,-7,-34
1.59111970353131e+15,11,9,11,12,16,16,2,-6
1.59111970355512e+15,5,4,1,8,0,0,1,6
1.59111970355512e+15,13,13,32,4,7,7,10,16
1.59111970355615e+15,-12,-0,-6,-13,4,4,4,16
1.59111970355615e+15,-10,-4,-36,15,-9,-9,-2,14
1.59111970356969e+15,8,-5,11,-30,-11,-11,-8,5
1.59111970356969e+15,-22,-9,-41,19,-2,-2,-6,-7
1.59111970357077e+15,0,12,55,13,3,3,0,1
1.59111970357077e+15,-4,-5,11,-27,-8,-8,7,-1
1.59111970358472e+15,16,12,5,14,4,4,11,27
1.59111970358472e+15,11,-2,-3,-19,-11,-11,-9,16
1.59111970359143e+15,-17,-8,-47,10,2,2,-5,-9
1.59111970359143e+15,-10,-3,22,-18,1,1,-5,-10
1.59111970360737e+15,1,1,-13,25,-2,-2,3,-12
1.59111970360737e+15,1,-0,29,-9,-3,-3,-10,-17
1.59111970360918e+15,1,-1,-7,4,-6,-6,0,-5
1.59111970360918e+15,-2,-2,21,-5,-4,-4,-13,-18
1.59111970363078e+15,1,-0,-36,-14,11,11,27,9
1.59111970363078e+15,-6,-0,24,4,-10,-10,-5,-10
1.59111970363178e+15,-4,-4,-16,-1,2,2,0,-1
1.59111970363178e+15,13,5,12,10,-5,-5,-3,4
1.59111970364435e+15,-9,-11,-46,-13,7,7,-9,-13
1.59111970364435e+15,11,13,33,21,0,0,8,5
1.59111970365904e+15,14,2,11,0,-7,-7,-13,1
1.59111970365904e+15,-28,-10,-49,-12,1,1,7,7
1.59111970366725e+15,3,-15,-68,-12,-7,-7,-5,-11
1.59111970366725e+15,-13,-0,13,3,3,3,2,0
1.59111970366919e+15,-8,-2,52,-17,-13,-13,-5,-6
1.59111970366919e+15,1,10,69,0,-1,-1,1,-1
1.59111970369084e+15,-3,3,-17,14,6,6,4,5
1.59111970369084e+15,-3,-21,-77,-30,0,0,-23,-9
1.59111970369184e+15,4,-2,-16,-2,-12,-12,8,5
1.59111970369184e+15,12,-5,-58,-9,4,4,12,6
1.59111970370405e+15,4,18,74,17,9,9,1,13
1.59111970370405e+15,-7,-2,-7,-1,5,5,2,-7
1.59111970371827e+15,6,8,15,13,12,12,-1,3
1.59111970371827e+15,-6,-19,-60,-30,-26,-26,-11,11
1.59111970373483e+15,3,6,-14,24,7,7,10,-3
1.59111970373483e+15,-8,-2,34,-12,1,1,-13,-3
1.59111970373584e+15,15,13,3,10,13,13,21,17
1.59111970373584e+15,9,13,88,0,2,2,-2,-3
1.59111970374833e+15,-18,-7,7,-13,-8,-8,-4,-13
1.59111970374833e+15,-11,-3,-8,7,-3,-3,-4,-3
1.59111970376477e+15,2,-6,-48,-14,0,0,9,2
1.59111970376477e+15,9,-5,-49,1,12,12,-9,-4
1.59111970376477e+15,-12,-12,-30,-12,-11,-11,-21,-3
1.59111970376477e+15,12,6,52,10,-12,-12,-13,-8
1.5911197037724e+15,-18,1,19,6,-11,-11,6,4
1.5911197037724e+15,3,14,35,26,12,12,6,1
1.59111970378784e+15,3,4,48,-13,6,6,-2,-12
1.59111970378784e+15,1,-9,-66,-9,2,2,5,-1
1.59111970378846e+15,7,-0,0,-11,2,2,-2,3
1.59111970378846e+15,11,10,2,10,7,7,17,11
1.59111970380943e+15,-7,-1,12,23,-6,-6,-23,-12
1.59111970380943e+15,-5,-5,-14,-20,-4,-4,4,4
1.59111970382398e+15,-13,-4,8,15,-7,-7,-12,-14
1.59111970382398e+15,-10,-13,-49,-6,-5,-5,-3,-11
1.59111970383195e+15,11,4,30,-6,-5,-5,-2,1
1.59111970383195e+15,9,10,4,1,11,11,15,17
1.59111970383415e+15,-3,-5,1,-8,-9,-9,-11,-7
1.59111970383415e+15,-32,-11,-38,1,-2,-2,-3,-5
1.59111970384786e+15,-5,5,32,15,-7,-7,-4,-1
1.59111970384786e+15,3,4,12,7,0,0,6,-9
1.59111970384887e+15,-5,-11,-29,-33,4,4,-4,-5
1.59111970384887e+15,15,4,25,-2,0,0,-6,-4
1.59111970387034e+15,-15,-8,-28,10,-9,-9,-6,-2
1.59111970387034e+15,-8,2,-5,17,3,3,-1,-4
1.59111970387173e+15,5,-0,-3,-6,3,3,-5,-3
1.59111970387173e+15,3,2,23,1,-10,-10,-3,1
1.59111970388345e+15,5,1,-17,-3,7,7,6,3
1.59111970388345e+15,2,-3,-11,-8,-7,-7,0,5
1.59111970389279e+15,-4,-2,-9,2,2,2,1,-5
1.59111970389279e+15,5,5,13,-7,2,2,8,13
1.59111970390813e+15,-1,1,9,0,-5,-5,1,4
1.59111970390813e+15,-12,-11,-22,-8,-7,-7,-12,-10
1.5911197039209e+15,1,-2,-10,0,2,2,-9,-4
1.5911197039209e+15,3,7,12,7,7,7,4,4
1.59111970393027e+15,5,-7,5,-25,-9,-9,-11,-6
1.59111970393027e+15,-18,-11,-35,-1,-2,-2,-9,-15
1.59111970393073e+15,-9,4,19,6,-3,-3,6,4
1.59111970393073e+15,21,7,14,-4,0,0,0,13
1.59111970394408e+15,-5,1,5,7,-2,-2,3,-2
1.59111970394408e+15,17,9,22,19,3,3,-1,-3
1.59111970395258e+15,-24,-8,-17,-11,1,1,4,-6
1.59111970395258e+15,0,8,10,19,14,14,1,-1
1.59111970396685e+15,-2,-10,-15,-16,-17,-17,-13,-6
1.59111970396685e+15,-13,-7,-11,-11,-5,-5,-6,0
1.59111970396885e+15,3,-4,-3,2,-5,-5,-10,-9
1.59111970396885e+15,-1,-2,1,-7,1,1,-2,-8
1.5911197039897e+15,10,8,4,5,6,6,14,10
1.5911197039897e+15,-1,-2,-6,-17,4,4,5,-3
1.5911197039916e+15,5,7,16,27,0,0,-5,5
1.5911197039916e+15,-9,-4,-9,-5,-11,-11,-5,-1
1.59111970400338e+15,11,1,-5,-7,10,10,2,0
1.59111970400338e+15,0,-0,-10,5,-4,-4,5,8
1.59111970401208e+15,9,-0,7,-15,-4,-4,0,3
1.59111970401208e+15,-3,-0,22,7,-7,-7,-8,-12
1.59111970402773e+15,-9,-4,-23,-12,3,3,10,1
1.59111970402773e+15,0,2,25,-1,2,2,-15,-6
1.59111970402908e+15,2,-0,-20,4,2,2,5,5
1.59111970402908e+15,-8,-9,-24,-17,-8,-8,-3,-5
1.59111970405002e+15,7,5,17,16,-4,-4,-5,-3
1.59111970405002e+15,7,-3,-26,-30,6,6,10,9
1.59111970405103e+15,-31,-9,-7,16,-10,-10,-13,-18
1.59111970405103e+15,-5,2,3,-2,11,11,2,-5
1.59111970406369e+15,9,2,5,4,-6,-6,2,5
1.59111970406369e+15,10,8,-7,8,14,14,14,13
1.59111970407245e+15,6,-2,16,-7,-15,-15,-12,-4
1.59111970407245e+15,-6,-1,4,-6,-12,-12,16,7
1.59111970408728e+15,-8,-2,-7,-10,8,8,-2,-9
1.59111970408728e+15,-1,4,17,16,-9,-9,-3,1
1.59111970409475e+15,6,4,-6,2,5,5,-1,12
1.59111970409475e+15,2,1,-11,-3,3,3,15,6
1.59111970411017e+15,-4,-5,4,-6,-9,-9,-10,-4
1.59111970411017e+15,-3,-5,1,-9,-16,-16,-3,-8
1.59111970411116e+15,3,-8,-24,-3,7,7,-21,-11
1.59111970411116e+15,-4,-0,8,-15,10,10,5,-4
1.59111970413206e+15,-3,6,25,22,2,2,-5,-2
1.59111970413206e+15,-3,1,-3,-2,9,9,2,-6
1.59111970413401e+15,8,4,15,-7,-2,-2,6,3
1.59111970413401e+15,9,-2,-15,1,-8,-8,-13,9
1.59111970414747e+15,-14,-9,-11,-7,5,5,-23,-8
1.59111970414747e+15,-2,-4,-5,-13,1,1,9,-3
1.59111970414847e+15,4,-0,-9,-2,-19,-19,13,14
1.59111970414847e+15,3,-4,-24,-4,2,2,-13,-7
1.59111970416943e+15,-4,7,22,6,8,8,9,-6
1.59111970416943e+15,-10,-1,9,29,1,1,-29,-20
1.59111970417143e+15,23,8,-1,0,15,15,-8,11
1.59111970417143e+15,15,-8,-9,-20,-47,-47,23,7
1.59111970419141e+15,9,3,-18,-13,6,6,31,22
1.59111970419141e+15,-46,-7,5,-33,39,39,11,-10
1.5911197041996e+15,11,12,9,-13,20,20,30,11
1.5911197041996e+15,30,22,15,54,7,7,-8,9
1.59111970420789e+15,-17,-7,-1,24,-28,-28,-16,-11
1.59111970420789e+15,-36,-18,-15,-15,-30,-30,-18,-13
1.59111970420946e+15,3,-9,-4,-20,3,3,-7,-9
1.59111970420946e+15,4,16,8,14,39,39,22,3
1.59111970422962e+15,39,18,-37,39,6,6,38,6
1.59111970422962e+15,60,5,47,-78,-7,-7,30,51
1.5911197042316e+15,-93,-37,1,-66,-62,-62,-58,-39
1.5911197042316e+15,-2,-2,1,81,11,11,-80,-52
1.59111970425269e+15,88,14,14,4,-45,-45,-34,70
1.59111970425269e+15,-92,-6,-47,-37,49,49,90,-44
1.59111970425332e+15,105,-15,31,-16,-19,-19,-45,-51
1.59111970425332e+15,-87,-11,3,-128,37,37,84,6
1.59111970426577e+15,-128,-41,13,103,-81,-81,-94,-123
1.59111970426577e+15,38,-2,-29,65,-39,-39,-51,28
1.591119704291e+15,79,21,0,-82,25,25,71,69
1.591119704291e+15,33,36,7,39,36,36,29,21
1.59111970429205e+15,127,52,3,-47,98,98,51,50
1.59111970429205e+15,122,53,40,97,43,43,69,63
1.59111970429307e+15,-128,-47,-26,99,-75,-75,-40,-79
1.59111970429307e+15,-7,7,88,32,3,3,-50,-11
1.59111970430533e+15,35,-4,-103,-26,-50,-50,51,52
1.59111970430533e+15,61,-20,-18,-85,-31,-31,-50,1
1.59111970430651e+15,-73,-46,19,-88,-25,-25,-97,-39
1.59111970430651e+15,-39,8,-51,5,17,17,89,-28
1.59111970431873e+15,-26,7,35,-38,59,59,10,-50
1.59111970431873e+15,93,60,32,115,31,31,4,59
1.59111970432767e+15,55,34,9,87,45,45,19,23
1.59111970432767e+15,-6,-36,-17,-85,-45,-45,-33,24
1.5911197043421e+15,10,-28,6,-102,9,9,9,-6
1.5911197043421e+15,-17,-25,13,4,-87,-87,-97,-56
1.59111970434849e+15,-25,39,-10,-21,38,38,127,40
1.59111970434849e+15,-51,-2,5,67,-29,-29,-28,-19
1.59111970436517e+15,-22,-25,-38,-42,-40,-40,-22,-17
1.59111970436517e+15,84,42,57,41,82,82,48,1
1.59111970436618e+15,54,-31,16,-66,-68,-68,-109,-24
1.59111970436618e+15,27,-10,-44,-56,10,10,-7,7
1.59111970438778e+15,54,51,62,99,21,21,3,81
1.59111970438778e+15,-44,-27,-11,-74,-12,-12,-14,-21
1.5911197043889e+15,-36,-1,4,-5,16,16,49,-1
1.5911197043889e+15,-7,4,-74,8,8,8,36,24
1.59111970440144e+15,-28,-2,70,48,-31,-31,-50,-40
1.59111970440144e+15,-5,18,-17,10,25,25,17,25
1.59111970440906e+15,20,-30,-91,-66,-8,-8,-19,-28
1.59111970440906e+15,111,21,23,22,-6,-6,6,27
1.59111970442514e+15,105,33,31,-7,51,51,6,31
1.59111970442514e+15,-128,-51,-6,10,-69,-69,-72,-69
1.59111970442681e+15,31,7,-79,-23,25,25,112,18
1.59111970442681e+15,10,-3,33,35,-31,-31,-50,-16
1.59111970445442e+15,13,24,16,-4,65,65,50,-17
1.59111970445442e+15,3,9,31,-54,-6,-6,67,46
1.5911197044624e+15,65,2,-48,39,-8,-8,-84,9
1.5911197044624e+15,-65,-30,-6,-35,-41,-41,-36,13
1.59111970447762e+15,-5,3,-3,-98,36,36,41,44
1.59111970447762e+15,-62,-24,-54,9,-13,-13,-11,-39
1.59111970449327e+15,-63,-1,24,66,7,7,-16,-41
1.59111970449327e+15,18,-5,-3,-60,-7,-7,-2,22
1.59111970449327e+15,-31,-6,-45,0,0,0,15,7
1.59111970449327e+15,16,-8,7,23,-17,-17,-30,-57
1.59111970449494e+15,66,32,16,-7,7,7,51,68
1.59111970449494e+15,-11,-2,61,-6,-7,-7,-7,-4
1.59111970451511e+15,-96,-30,-4,25,-28,-28,-36,-63
1.59111970451511e+15,61,13,-31,-45,19,19,34,22
1.59111970451668e+15,-43,15,21,78,8,8,17,1
1.59111970451668e+15,15,11,35,-16,25,25,20,-20
1.59111970453748e+15,7,-19,6,-19,-57,-57,-9,10
1.59111970453748e+15,18,-6,-40,28,-15,-15,-40,-7
1.59111970453848e+15,9,-30,-38,-92,-8,-8,-44,-30
1.59111970453848e+15,-5,-15,-67,-13,-1,-1,-7,-12
1.59111970455369e+15,20,36,21,75,37,37,38,17
1.59111970455369e+15,10,23,2,63,20,20,13,16
1.59111970455807e+15,1,4,45,-12,-9,-9,13,25
1.59111970455807e+15,17,-6,-51,-35,14,14,2,0
1.59111970456597e+15,-27,-37,-18,-55,-28,-28,-45,-43
1.59111970456597e+15,-4,11,20,8,7,7,36,28
1.59111970457434e+15,-43,13,-17,42,33,33,39,0
1.59111970457434e+15,-3,-18,25,30,-47,-47,-50,-39
1.59111970458988e+15,-25,-31,-71,-62,-3,-3,-5,-35
1.59111970458988e+15,-25,-23,12,-112,-19,-19,-7,21
1.59111970459686e+15,51,50,61,112,23,23,1,3
1.59111970459686e+15,36,13,17,-33,21,21,16,3
1.59111970461215e+15,-29,7,-28,93,-2,-2,-17,-1
1.59111970461215e+15,-41,-4,18,40,4,4,1,-33
1.5911197046141e+15,41,6,-44,-71,5,5,39,70
1.5911197046141e+15,-64,-7,35,25,-2,-2,-30,-38
1.59111970463571e+15,10,-4,-1,-5,-25,-25,-2,8
1.59111970463571e+15,28,25,43,35,24,24,20,13
1.59111970465037e+15,-14,-3,-6,61,-3,-3,-28,-34
1.59111970465037e+15,6,-29,-51,-57,-20,-20,-18,0
1.59111970465137e+15,-25,-1,8,-66,19,19,20,8
1.59111970465137e+15,54,39,35,73,30,30,14,12
1.59111970465251e+15,-49,-36,-39,-10,-55,-55,-61,2
1.59111970465251e+15,3,18,34,34,14,14,20,9
1.59111970467238e+15,7,-27,-46,-37,-15,-15,-5,-17
1.59111970467238e+15,-12,-13,-17,-50,-8,-8,-5,9
1.59111970467426e+15,13,31,50,59,37,37,4,1
1.59111970467426e+15,19,16,-6,38,-7,-7,28,35
1.59111970468657e+15,7,-2,26,-42,6,6,-7,-4
1.59111970468657e+15,-24,-30,-2,-88,-13,-13,-33,-24
1.59111970470089e+15,12,38,47,41,18,18,44,80
1.59111970470089e+15,-9,-16,-37,6,-12,-12,-24,-26
1.5911197047103e+15,10,7,50,20,-5,-5,-6,-12
1.5911197047103e+15,-16,-31,-104,-42,-34,-34,-15,-15
1.5911197047116e+15,-29,-28,6,-82,9,9,-24,-62
1.5911197047116e+15,27,10,-2,-7,25,25,36,12
1.59111970474048e+15,40,35,74,81,9,9,20,9
1.59111970474048e+15,-51,-29,-31,-13,-29,-29,-36,-30
1.59111970474225e+15,-14,1,-7,-5,8,8,7,-10
1.59111970474225e+15,-26,-8,-11,-30,16,16,12,-1
1.59111970475455e+15,5,-17,-31,-20,-28,-28,-23,-10
1.59111970475455e+15,18,17,26,32,15,15,-3,4
1.59111970475671e+15,12,15,0,-4,10,10,48,21
1.59111970475671e+15,10,-3,-3,26,-20,-20,-9,-16
1.5911197047689e+15,-93,-46,-18,-29,-42,-42,-73,-41
1.5911197047689e+15,26,19,-10,4,3,3,44,69
1.59111970477711e+15,24,11,18,-21,15,15,19,12
1.59111970477711e+15,24,28,11,54,22,22,15,13
1.59111970479274e+15,31,24,10,27,18,18,22,29
1.59111970479274e+15,2,-19,-46,-52,-8,-8,-12,-12
1.59111970479415e+15,-33,-33,-26,8,-30,-30,-67,-49
1.59111970479415e+15,0,-3,0,-82,13,13,25,17
1.59111970480597e+15,16,20,39,39,-1,-1,8,5
1.59111970480597e+15,-31,19,18,56,13,13,30,15
1.59111970482227e+15,18,8,26,-13,1,1,1,27
1.59111970482227e+15,1,-15,-25,13,-32,-32,-32,-25
1.59111970483038e+15,-13,-15,-18,-41,-4,-4,-19,-8
1.59111970483038e+15,-22,-6,23,-19,25,25,-4,-60
1.59111970483175e+15,16,10,-4,9,3,3,14,24
1.59111970483175e+15,-13,-12,28,20,-34,-34,-62,-22
1.59111970485308e+15,-1,8,-46,-8,26,26,55,15
1.59111970485308e+15,23,-3,5,-9,-16,-16,-13,1
1.59111970485902e+15,-8,-6,2,8,-7,-7,-14,-12
1.59111970485902e+15,6,3,-8,-22,15,15,13,8
1.59111970486608e+15,-32,-11,9,-10,-28,-28,-2,7
1.59111970486608e+15,14,7,2,18,14,14,6,-13
1.59111970488131e+15,9,-3,-17,-15,3,3,-5,-8
1.59111970488131e+15,28,17,28,39,1,1,-7,17
1.59111970488964e+15,-20,-13,-20,-8,12,12,-29,-48
1.59111970488964e+15,17,6,18,-4,-22,-22,-6,41
1.59111970489644e+15,-20,-13,-8,-25,-21,-21,16,-7
1.59111970489644e+15,3,7,2,22,4,4,18,-17
1.59111970491272e+15,3,2,2,4,3,3,3,3
1.59111970491272e+15,-20,8,-14,13,21,21,27,5
1.59111970491373e+15,-27,-18,-21,-12,-4,-4,-28,-28
1.59111970491373e+15,-2,7,25,-19,-1,-1,21,34
1.59111970492631e+15,5,14,20,47,-5,-5,24,11
1.59111970492631e+15,23,-20,-38,-52,-13,-13,-34,-13
1.5911197049346e+15,30,29,37,29,15,15,38,43
1.5911197049346e+15,-60,-17,-3,-24,-3,-3,-19,-10
1.59111970494942e+15,24,9,-33,-11,12,12,4,41
1.59111970494942e+15,25,-2,50,30,-16,-16,-44,-54
1.59111970495693e+15,-12,-15,-41,-14,-4,-4,-15,-27
1.59111970495693e+15,7,2,-27,-29,20,20,10,20
1.5911197049717e+15,-16,-29,-35,-21,-41,-41,-65,-18
1.5911197049717e+15,-20,7,22,1,7,7,17,19
1.59111970498698e+15,47,13,44,17,-5,-5,-14,8
1.59111970498698e+15,14,8,-19,18,13,13,-18,32
1.59111970498698e+15,-7,14,35,-2,-2,-2,10,84
1.59111970498698e+15,-18,-7,-32,14,1,1,-7,-28
1.59111970499485e+15,-16,-7,-1,-6,-9,-9,18,-21
1.59111970499485e+15,-2,-12,-27,-4,-4,-4,-16,-38
1.59111970501689e+15,6,-4,-8,-14,2,2,8,-19
1.59111970501689e+15,-2,-0,48,18,-29,-29,2,-18
1.59111970501883e+15,23,19,-18,15,31,31,73,-13
1.59111970501883e+15,-28,-22,-41,-1,-28,-28,-1,-50
1.59111970503245e+15,-12,12,51,44,1,1,17,-23
1.59111970503245e+15,-16,-9,-46,-47,10,10,7,11
1.5911197050335e+15,8,17,-5,-13,19,19,35,48
1.5911197050335e+15,-4,-20,-5,-8,-39,-39,-23,-37
1.59111970505515e+15,19,1,-2,-1,25,25,0,-39
1.59111970505515e+15,46,-2,-40,-27,-4,-4,8,19
1.59111970505597e+15,-17,-4,5,18,1,1,-30,-20
1.59111970505597e+15,-26,-12,10,10,-17,-17,-42,-13
1.59111970506909e+15,-49,-11,-14,-28,-9,-9,14,11
1.59111970506909e+15,3,10,14,22,8,8,-4,6
1.59111970507609e+15,7,-2,17,-30,10,10,-8,-15
1.59111970507609e+15,13,18,53,34,12,12,-4,0
1.59111970509259e+15,13,-5,-28,2,-13,-13,2,-11
1.59111970509259e+15,1,-4,9,-30,-6,-6,-5,-1
1.59111970509334e+15,-18,-1,10,14,-20,-20,-15,22
1.59111970509334e+15,39,25,7,12,35,35,-5,46
1.59111970511503e+15,-49,-16,-24,-23,-19,-19,16,-7
1.59111970511503e+15,18,9,24,3,-1,-1,6,26
1.59111970512128e+15,-1,-9,-33,-17,9,9,-14,-13
1.59111970512128e+15,-40,-29,-41,-53,-31,-31,-3,0
1.59111970512964e+15,16,6,7,-5,13,13,-4,10
1.59111970512964e+15,-26,-6,-22,32,6,6,-28,-21
1.59111970513655e+15,-11,2,7,-4,-7,-7,1,36
1.59111970513655e+15,39,28,30,47,14,14,22,34
1.59111970515227e+15,41,14,0,-18,32,32,16,7
1.59111970515227e+15,-38,-48,-40,-42,-74,-74,-50,-34
1.59111970515409e+15,25,23,35,9,32,32,21,30
1.59111970515409e+15,-26,-30,-44,-33,-29,-29,-21,-55
1.59111970517458e+15,71,13,28,8,-24,-24,-8,30
1.59111970517458e+15,-33,1,-25,10,33,33,2,-18
1.59111970517653e+15,-27,1,13,42,0,0,-1,-34
1.59111970517653e+15,8,14,-21,12,7,7,40,32
1.59111970518878e+15,-6,-2,2,-19,20,20,4,-21
1.59111970518878e+15,33,8,2,-2,-2,-2,21,25
1.59111970519713e+15,-34,-24,-43,-26,-21,-21,-11,-13
1.59111970519713e+15,4,15,40,12,26,26,10,-8
1.59111970521252e+15,7,5,11,18,9,9,-21,-18
1.59111970521252e+15,24,1,4,27,-35,-35,-16,26
1.59111970521353e+15,-1,-1,17,0,4,4,0,-22
1.59111970521353e+15,-19,-8,26,-9,-11,-11,4,-18
1.59111970523453e+15,27,14,-24,3,24,24,19,24
1.59111970523453e+15,18,20,28,7,23,23,25,26
1.59111970523587e+15,-12,-18,10,17,-27,-27,-77,-37
1.59111970523587e+15,6,5,0,-21,-2,-2,39,25
1.59111970524832e+15,-72,-30,-24,-33,-17,-17,-22,-38
1.59111970524832e+15,-7,-3,-21,-33,8,8,24,5
1.59111970525724e+15,20,3,22,5,-4,-4,-6,-9
1.59111970525724e+15,1,-6,-15,-17,3,3,-7,-7
1.59111970527224e+15,-32,7,17,13,32,32,10,-25
1.59111970527224e+15,55,28,48,54,4,4,21,6
1.59111970527448e+15,-83,-41,-59,-64,-23,-23,-30,-28
1.59111970527448e+15,4,14,70,44,-17,-17,-24,26
1.59111970529521e+15,19,-2,-30,-32,1,1,8,23
1.59111970529521e+15,-86,-15,24,28,-3,-3,-42,-38
1.59111970529603e+15,16,1,-5,-7,-7,-7,8,18
1.59111970529603e+15,16,5,-18,-36,7,7,28,27
1.59111970530887e+15,19,7,35,27,-12,-12,-23,1
1.59111970530887e+15,-20,13,-31,-16,43,43,59,34
1.5911197053172e+15,-24,-31,-8,-22,-44,-44,-46,-48
1.5911197053172e+15,-58,-13,-25,17,-15,-15,-8,-5
1.59111970534006e+15,-3,8,12,42,2,2,6,-2
1.59111970534006e+15,41,6,-28,2,7,7,12,-3
1.59111970534107e+15,33,17,9,-12,23,23,31,26
1.59111970534107e+15,36,-11,-15,-31,-13,-13,-8,-20
1.59111970535535e+15,-55,-15,-4,12,-4,-4,-13,-24
1.59111970535535e+15,-85,-17,3,-6,-6,-6,-11,-31
1.59111970536137e+15,28,10,23,-14,-16,-16,15,45
1.59111970536137e+15,16,-1,-28,32,-17,-17,-17,-11
1.5911197053679e+15,31,9,18,3,4,4,5,8
1.5911197053679e+15,50,-0,-5,-37,-6,-6,-17,14
1.59111970537723e+15,4,13,-19,15,27,27,12,7
1.59111970537723e+15,6,6,-22,-4,18,18,18,9
1.59111970539182e+15,12,4,6,-9,-6,-6,15,13
1.59111970539182e+15,-20,-10,16,4,-13,-13,-15,-23
1.59111970540631e+15,48,36,51,52,22,22,42,22
1.59111970540631e+15,-19,-19,-2,-16,-23,-23,-27,-20
1.59111970541496e+15,-22,-9,-18,0,-12,-12,-9,3
1.59111970541496e+15,-1,-4,1,0,1,1,-18,-11
1.59111970541597e+15,-46,-7,6,-8,-2,-2,13,0
1.59111970541597e+15,61,22,6,34,18,18,5,13
1.59111970542965e+15,-62,-11,2,-31,6,6,19,-16
1.59111970542965e+15,9,-8,-2,6,-29,-29,-21,-9
1.59111970543631e+15,14,-3,-18,19,-7,-7,-26,-11
1.59111970543631e+15,13,-12,-1,-44,-9,-9,-20,5
1.59111970545232e+15,-16,-25,-41,-61,-19,-19,-28,-14
1.59111970545232e+15,8,25,17,59,16,16,19,13
1.59111970545422e+15,21,11,16,11,14,14,4,-8
1.59111970545422e+15,41,18,-12,0,20,20,32,39
1.59111970547507e+15,26,10,29,14,0,0,2,4
1.59111970547507e+15,-28,-9,7,-24,-6,-6,14,-2
1.59111970547607e+15,-34,-23,-46,-34,10,10,-42,-43
1.59111970547607e+15,6,-9,-13,-38,-30,-30,25,30
1.59111970549796e+15,-23,-1,2,28,0,0,-7,-21
1.59111970549796e+15,-7,-0,-1,5,4,4,-27,8
1.59111970549897e+15,45,38,62,40,33,33,45,11
1.59111970549897e+15,-6,-15,-7,0,-21,-21,-22,-21
1.59111970551272e+15,51,2,-52,-32,3,3,16,15
1.59111970551272e+15,-51,6,20,54,6,6,-1,-9
1.59111970551372e+15,-30,-28,-17,-16,-28,-28,-45,-34
1.59111970551372e+15,24,13,-7,-16,26,26,24,5
1.59111970554154e+15,-35,9,29,54,13,13,-10,-10
1.59111970554154e+15,76,4,8,-29,-14,-14,13,-1
1.59111970554347e+15,-68,-16,-15,-16,-6,-6,-6,5
1.59111970554347e+15,-57,5,31,27,28,28,-1,-25
1.59111970554798e+15,44,-17,-23,-50,-42,-42,-31,29
1.59111970554798e+15,-7,1,-22,6,2,2,12,1
1.59111970557442e+15,41,-6,6,-12,-22,-22,-15,-13
1.59111970557442e+15,-30,7,5,1,24,24,28,-1
1.5911197055754e+15,13,14,11,42,18,18,-12,-11
1.5911197055754e+15,87,28,-3,-27,16,16,52,55
1.5911197055791e+15,-50,-44,-41,-36,-43,-43,-66,-53
1.5911197055791e+15,31,23,21,33,14,14,27,24
1.59111970559523e+15,-75,-22,6,-3,-6,-6,-16,-56
1.59111970559523e+15,32,3,-2,-24,13,13,-2,7
1.59111970559602e+15,38,22,4,29,0,0,22,51
1.59111970559602e+15,-13,-12,-36,-19,10,10,-7,-37
1.59111970561771e+15,-6,-13,21,0,-50,-50,-31,7
1.59111970561771e+15,-27,-8,-28,-16,9,9,7,-5
1.59111970561871e+15,28,2,-11,-34,2,2,13,6
1.59111970561871e+15,-29,12,16,21,40,40,10,-3
1.59111970563267e+15,9,-11,-7,-10,-36,-36,-1,-3
1.59111970563267e+15,-62,-12,7,15,9,9,-29,-53
1.59111970563893e+15,12,1,-17,-20,-10,-10,23,31
1.59111970563893e+15,51,18,45,27,-9,-9,-2,27
1.591119705655e+15,64,15,-38,-24,19,19,23,44
1.591119705655e+15,-5,-11,-28,-25,-14,-14,-11,14
1.59111970565606e+15,-72,12,26,47,33,33,31,-9
1.59111970565606e+15,18,-8,4,-10,-32,-32,-15,-15
1.59111970566856e+15,12,6,1,10,3,3,5,9
1.59111970566856e+15,20,-3,4,-2,-7,-7,-34,3
1.59111970567809e+15,15,10,13,21,-2,-2,19,5
1.59111970567809e+15,80,16,-21,-29,7,7,36,35
1.5911197056925e+15,-91,-9,-9,4,25,25,-5,-19
1.5911197056925e+15,-60,-21,11,-15,-20,-20,-18,-10
1.5911197056935e+15,-37,-16,-14,-8,-2,-2,-66,4
1.5911197056935e+15,45,16,42,56,11,11,-57,-20
1.59111970571492e+15,-5,14,-13,2,10,10,74,51
1.59111970571492e+15,-36,-31,-9,-22,-33,-33,-43,-61
1.59111970571697e+15,41,-8,6,-3,-25,-25,-41,-25
1.59111970571697e+15,-24,-2,3,-9,6,6,23,-13
1.59111970572883e+15,8,-8,-1,4,-9,-9,-40,-32
1.59111970572883e+15,2,23,5,-4,45,45,61,21
1.59111970573731e+15,-33,-18,-14,-1,-34,-34,7,-34
1.59111970573731e+15,48,9,21,-15,-5,-5,4,20
1.59111970575142e+15,55,6,-25,-20,12,12,0,4
1.59111970575142e+15,-15,11,12,8,7,7,40,26
1.59111970575839e+15,-37,7,-6,0,20,20,34,5
1.59111970575839e+15,-59,-12,-17,19,-10,-10,-3,-14
1.59111970577607e+15,25,13,40,-6,20,20,2,-1
1.59111970577607e+15,45,-13,-20,-15,-44,-44,-41,2
1.59111970577719e+15,0,-23,-28,-35,-7,-7,-33,-36
1.59111970577719e+15,-73,-20,-17,-24,-10,-10,-24,9
1.59111970578902e+15,-22,17,2,23,15,15,41,51
1.59111970578902e+15,-66,-18,-26,4,12,12,-30,-46
1.59111970579779e+15,86,10,9,4,-24,-24,0,19
1.59111970579779e+15,53,3,0,-9,1,1,-11,-22
1.59111970581331e+15,127,30,5,13,3,3,20,44
1.59111970581331e+15,14,9,7,-3,24,24,26,-21
1.59111970581405e+15,43,-0,9,6,4,4,-32,-46
1.59111970581405e+15,-128,-34,-5,-29,-26,-26,-10,-6
1.59111970583496e+15,-40,4,-3,-25,40,40,50,-17
1.59111970583496e+15,-17,-34,-18,-10,-71,-71,-60,-22
1.59111970583671e+15,36,10,10,-9,12,12,13,12
1.59111970583671e+15,50,35,40,47,14,14,23,43
1.59111970584919e+15,74,4,-11,-1,-23,-23,-29,25
1.59111970584919e+15,-77,-13,24,-8,4,4,8,-31
1.59111970585721e+15,1,5,-35,-8,2,2,18,29
1.59111970585721e+15,53,13,-17,11,-2,-2,30,5
1.59111970587269e+15,-103,-19,6,4,19,19,-2,-73
1.59111970587269e+15,95,36,-7,-3,1,1,56,113
1.5911197058737e+15,-71,-27,15,-23,-18,-18,-38,-42
1.5911197058737e+15,-55,-26,-47,-12,-30,-30,-19,-4
1.59111970589496e+15,32,17,29,19,1,1,20,0
1.59111970589496e+15,45,16,21,7,13,13,-33,27
1.59111970589601e+15,2,29,22,37,34,34,67,22
1.59111970589601e+15,22,-1,-19,-24,2,2,15,7
1.59111970590903e+15,-25,-35,-11,-1,-41,-41,-64,-71
1.59111970590903e+15,59,13,9,4,0,0,7,0
1.59111970591692e+15,120,28,-9,14,-1,-1,-1,57
1.59111970591692e+15,71,29,30,25,38,38,15,-16
1.5911197059313e+15,-90,-47,-31,-36,-53,-53,-31,-36
1.5911197059313e+15,-22,-22,-39,-13,-13,-13,-13,-44
1.59111970593874e+15,79,10,2,-8,23,23,-8,-23
1.59111970593874e+15,18,3,-7,-10,-2,-2,31,3
1.59111970595465e+15,86,11,20,4,-15,-15,-44,17
1.59111970595465e+15,98,48,13,21,37,37,74,59
1.59111970595665e+15,-33,-22,-20,5,-34,-34,-36,-22
1.59111970595665e+15,-74,-6,3,11,39,39,-32,-40
1.5911197059688e+15,66,-4,-8,2,-27,-27,-67,22
1.5911197059688e+15,30,22,17,-3,28,28,68,-5
1.59111970597695e+15,-1,-10,-4,-17,-25,-25,-3,28
1.59111970597695e+15,30,-2,6,-21,8,8,-26,-16
1.59111970599206e+15,10,16,-14,-27,11,11,75,56
1.59111970599206e+15,-98,-33,-1,16,-6,-6,-68,-90
1.59111970599797e+15,21,14,10,26,4,4,6,24
1.59111970599797e+15,-98,-17,-13,-20,4,4,35,-31
1.59111970601477e+15,19,-6,12,1,-24,-24,-38,6
1.59111970601477e+15,-4,20,30,36,29,29,2,35
1.59111970601677e+15,-29,-12,-41,-53,-3,-3,44,5
1.59111970601677e+15,42,3,25,34,-7,-7,-60,-6
1.59111970603792e+15,0,2,-25,-5,13,13,16,-6
1.59111970603792e+15,39,-8,7,9,-43,-43,-26,-7
1.59111970603861e+15,-24,-3,9,14,11,11,-28,-22
1.59111970603861e+15,-33,-18,-12,-28,-14,-14,-18,-5
1.59111970605226e+15,-53,2,1,14,6,6,21,-6
1.59111970605226e+15,-112,-40,-14,-5,-17,-17,-52,-72
1.5911197060541e+15,6,15,4,-3,27,27,33,21
1.5911197060541e+15,44,-3,-23,1,-29,-29,-5,16
1.59111970607552e+15,-44,-10,-9,-3,22,22,-39,-15
1.59111970607552e+15,34,22,3,-10,-17,-17,87,77
1.59111970607653e+15,-24,-6,-9,-15,20,20,18,-33
1.59111970607653e+15,47,-1,23,12,-24,-24,-52,-21
1.59111970609784e+15,-8,-9,8,22,-13,-13,-29,-38
1.59111970609784e+15,31,15,-2,-7,10,10,8,56
1.59111970609885e+15,-77,-2,18,28,13,13,6,-7
1.59111970609885e+15,-32,-11,-13,-7,16,16,-21,-28
1.59111970611207e+15,19,7,6,-4,-12,-12,27,27
1.59111970611207e+15,58,30,16,14,31,31,26,36
1.59111970612634e+15,34,-14,-1,-6,-10,-10,-72,-48
1.59111970612634e+15,5,6,-8,-9,12,12,31,10
1.59111970613511e+15,74,8,22,10,10,10,-62,-10
1.59111970613511e+15,-104,-24,-40,-33,-7,-7,48,-16
1.59111970613612e+15,11,4,8,20,-24,-24,-19,28
1.59111970613612e+15,-1,-5,8,-5,-11,-11,0,-15
1.5911197061569e+15,61,42,0,0,48,48,124,36
1.5911197061569e+15,43,-7,1,12,-6,-6,-61,-46
1.59111970615924e+15,37,-5,-22,-43,-24,-24,-19,39
1.59111970615924e+15,-14,-26,-34,-24,-18,-18,-32,-39
1.59111970617109e+15,77,21,18,9,9,9,-2,32
1.59111970617109e+15,33,20,26,36,2,2,28,7
1.59111970618022e+15,-37,10,-5,-21,60,60,59,-3
1.59111970618022e+15,45,-2,5,16,-60,-60,-32,25
1.59111970619536e+15,4,-9,-13,-26,-15,-15,-12,3
1.59111970619536e+15,-33,-21,-2,-7,-9,-9,-51,-38
1.59111970619683e+15,-5,20,3,14,22,22,35,36
1.59111970619683e+15,-49,6,2,-10,42,42,13,11
1.59111970621691e+15,3,-1,-15,7,-18,-18,38,-12
1.59111970621691e+15,13,-9,-8,-6,-21,-21,-31,-11
1.59111970621885e+15,12,11,16,22,5,5,27,8
1.59111970621885e+15,-2,3,-5,-23,19,19,15,16
1.59111970623059e+15,-37,-30,-10,4,-37,-37,-33,-70
1.59111970623059e+15,38,8,18,-8,-9,-9,-23,59
1.59111970624609e+15,-16,-15,-25,9,-24,-24,-22,-41
1.59111970624609e+15,44,14,8,17,19,19,1,-9
1.59111970625507e+15,-11,10,-15,-8,14,14,23,59
1.59111970625507e+15,-8,3,18,10,7,7,-25,-8
1.59111970625608e+15,127,11,-4,-9,-29,-29,-16,32
1.59111970625608e+15,-56,-2,7,-1,39,39,12,-36
1.59111970627827e+15,-30,-17,-12,-15,-44,-44,13,3
1.59111970627827e+15,-82,-35,-27,-11,-28,-28,-33,-61
1.59111970627951e+15,45,16,18,6,8,8,-25,56
1.59111970627951e+15,49,28,-11,11,23,23,70,22
1.59111970629215e+15,6,-23,-2,-4,-31,-31,-60,-60
1.59111970629215e+15,-55,-7,-24,0,-8,-8,0,22
1.59111970629823e+15,-29,4,19,21,14,14,9,-13
1.59111970629823e+15,4,5,-6,9,-2,-2,28,-1
1.59111970631484e+15,-56,3,4,18,30,30,8,-7
1.59111970631484e+15,78,12,1,-13,-11,-11,41,-3
1.59111970631586e+15,-49,-42,-19,-14,-28,-28,-88,-81
1.59111970631586e+15,36,15,-3,-23,-7,-7,65,37
1.59111970633776e+15,96,12,7,4,-3,-3,3,-13
1.59111970633776e+15,-48,-23,-44,-25,14,14,-45,-23
1.59111970633877e+15,54,29,14,9,9,9,80,36
1.59111970633877e+15,16,16,8,-5,13,13,-11,81
1.59111970635131e+15,-26,-20,-4,-14,-11,-11,-33,-63
1.59111970635131e+15,127,27,14,-7,-12,-12,14,74
1.59111970635964e+15,-65,-18,21,14,-7,-7,-44,-70
1.59111970635964e+15,-57,1,-12,16,1,1,11,41
1.59111970637515e+15,-21,-11,-12,5,-25,-25,-40,6
1.59111970637515e+15,-57,-11,31,16,19,19,-20,-63
1.59111970637657e+15,105,10,-21,-31,-20,-20,3,23
1.59111970637657e+15,-96,-61,-24,-28,-41,-41,-92,-117
1.59111970640511e+15,67,31,-2,-8,32,32,71,56
1.59111970640511e+15,85,19,3,0,13,13,-2,12
1.59111970640611e+15,60,41,25,22,34,34,62,74
1.59111970640611e+15,-84,-36,-34,-15,-12,-12,-57,-46
1.59111970641107e+15,-7,-20,-9,-34,-47,-47,-2,-17
1.59111970641107e+15,47,14,14,16,18,18,9,-14
1.59111970641968e+15,15,26,19,-13,46,46,85,21
1.59111970641968e+15,122,-7,18,12,-65,-65,-93,-2
1.59111970643443e+15,17,31,-2,25,49,49,46,30
1.59111970643443e+15,-43,-26,-20,-44,2,2,-29,-51
1.59111970644224e+15,-13,-6,1,29,-19,-19,-45,-10
1.59111970644224e+15,-85,-24,-3,-18,-20,-20,4,-13
1.59111970645767e+15,19,12,-8,44,-3,-3,18,21
1.59111970645767e+15,-65,-13,-22,0,-2,-2,-13,-20
1.59111970645921e+15,-114,-21,6,18,19,19,-45,-58
1.59111970645921e+15,-23,-25,-14,-25,-40,-40,-31,-13
1.59111970647083e+15,-30,-5,12,-3,20,20,-47,-12
1.59111970647083e+15,103,44,25,18,21,21,85,53
1.5911197064797e+15,-37,-27,-18,-34,-19,-19,-32,-27
1.5911197064797e+15,7,17,0,9,4,4,51,33
1.59111970649546e+15,6,9,20,2,19,19,12,-7
1.59111970649546e+15,97,33,10,13,15,15,11,60
1.59111970649659e+15,-8,-38,-22,-54,-27,-27,-45,-79
1.59111970649659e+15,43,12,-4,7,5,5,31,-14
1.59111970651731e+15,4,25,23,-9,64,64,34,25
1.59111970651731e+15,7,-41,-39,-16,-89,-89,-23,-76
1.59111970651832e+15,89,25,-9,24,-16,-16,35,74
1.59111970651832e+15,42,4,7,6,-7,-7,-10,-30
1.59111970653131e+15,55,33,13,5,52,52,26,45
1.59111970653131e+15,-33,-8,2,7,-32,-32,-2,6
1.59111970653947e+15,-106,-13,-8,30,6,6,22,-43
1.59111970653947e+15,56,-15,-26,-47,-20,-20,-56,-15
1.59111970655486e+15,-19,2,19,17,15,15,-8,-19
1.59111970655486e+15,2,12,3,3,27,27,10,24
1.59111970655677e+15,-36,-34,-42,-32,-40,-40,-21,-33
1.59111970655677e+15,67,54,30,33,37,37,85,101
1.59111970657799e+15,-90,-41,-23,-41,-45,-45,-23,-43
1.59111970657799e+15,-16,-18,-14,-30,-24,-24,-23,0
1.5911197065793e+15,-39,9,8,14,25,25,28,-5
1.5911197065793e+15,61,35,8,10,26,26,55,67
1.59111970659068e+15,78,15,33,20,-4,-4,-4,-16
1.59111970659068e+15,-1,-1,-66,-30,13,13,13,46
1.59111970660018e+15,-5,-24,7,-6,-44,-44,-72,-37
1.59111970660018e+15,49,13,15,-10,4,4,8,19
1.5911197066148e+15,-65,-13,-11,22,-10,-10,-23,-7
1.5911197066148e+15,24,-5,32,13,-7,-7,-43,-37
1.5911197066158e+15,58,23,5,-19,7,7,30,85
1.5911197066158e+15,48,19,21,24,19,19,15,6
1.59111970663798e+15,-17,-15,-42,-59,7,7,-13,-10
1.59111970663798e+15,-16,-8,18,7,-8,-8,-20,-22
1.59111970663899e+15,-28,-14,-10,-12,-14,-14,-28,-7
1.59111970663899e+15,-67,-9,-1,8,15,15,1,-27
1.59111970665112e+15,75,2,3,9,-29,-29,-13,-14
1.59111970665112e+15,60,-0,4,-31,-1,-1,-45,-1
1.59111970666012e+15,-46,4,17,43,6,6,-5,12
1.59111970666012e+15,-62,-17,-20,-18,6,6,30,-74
1.59111970667491e+15,58,2,-19,-6,-35,-35,-15,53
1.59111970667491e+15,-46,-14,-11,-18,4,4,13,-33
1.59111970667591e+15,-70,-20,6,19,-4,-4,-31,-60
1.59111970667591e+15,-4,-1,23,24,5,5,-42,-28
1.59111970669787e+15,93,44,28,7,34,34,67,62
1.59111970669787e+15,-63,-15,-12,16,-36,-36,-6,22
1.59111970669887e+15,78,18,-30,-35,20,20,31,38
1.59111970669887e+15,32,3,14,17,0,0,-22,-15
1.59111970671147e+15,17,12,37,11,21,21,8,-11
1.59111970671147e+15,24,20,-15,12,7,7,41,67
1.59111970672696e+15,-82,-36,-22,-16,-10,-10,-45,-81
1.59111970672696e+15,79,24,0,3,-11,-11,55,60
1.59111970673538e+15,-81,-32,-21,-26,-15,-15,-44,-33
1.59111970673538e+15,-59,17,26,32,22,22,56,29
1.59111970673638e+15,-27,-19,-16,-32,-9,-9,-12,-39
1.59111970673638e+15,-11,-29,-26,-33,-34,-34,-65,-35
1.5911197067578e+15,48,43,36,74,27,27,37,39
1.5911197067578e+15,68,31,-5,16,42,42,34,-1
1.59111970675859e+15,127,6,-35,-48,-55,-55,-6,85
1.59111970675859e+15,-35,1,14,4,10,10,13,3
1.59111970677128e+15,-128,-37,-3,-16,-18,-18,-27,-51
1.59111970677128e+15,73,22,4,-7,22,22,20,-2
1.59111970677976e+15,-16,-10,-4,21,-26,-26,-19,-2
1.59111970677976e+15,106,15,7,-6,22,22,-9,-27
1.5911197067948e+15,54,5,-43,-30,-12,-12,38,75
1.5911197067948e+15,-91,-19,20,17,4,4,-20,-73
1.59111970680099e+15,127,56,23,11,52,52,71,57
1.59111970680099e+15,-100,-36,8,-2,-41,-41,-72,-28
1.59111970681774e+15,-53,7,-5,27,45,45,11,-24
1.59111970681774e+15,17,-12,-16,-38,-20,-20,-14,12
1.5911197068245e+15,43,16,24,5,-11,-11,14,41
1.5911197068245e+15,-29,6,10,37,-4,-4,23,11
1.59111970683112e+15,84,-8,-32,-47,-38,-38,-5,9
1.59111970683112e+15,0,8,12,-22,8,8,28,48
1.59111970683966e+15,36,17,-1,29,14,14,30,15
1.59111970683966e+15,68,42,17,-9,62,62,69,55
1.59111970685468e+15,-125,-78,-67,-47,-66,-66,-80,-119
1.59111970685468e+15,109,-2,24,26,-45,-45,-88,-24
1.59111970686101e+15,1,34,15,8,63,63,68,20
1.59111970686101e+15,60,-7,-31,-17,-41,-41,-5,16
1.59111970687781e+15,87,25,41,20,1,1,-11,54
1.59111970687781e+15,-36,-0,-2,8,23,23,42,-30
1.59111970687883e+15,52,26,-2,-11,31,31,35,41
1.59111970687883e+15,17,-18,10,-13,-23,-23,-75,-26
1.59111970689113e+15,48,27,19,46,7,7,33,15
1.59111970689113e+15,-75,-37,-20,-7,-26,-26,-67,-49
1.59111970690642e+15,78,24,16,26,16,16,19,-3
1.59111970690642e+15,-39,25,-10,-3,41,41,84,86
1.59111970691466e+15,-71,-47,-30,-54,-24,-24,-79,-53
1.59111970691466e+15,118,10,7,-21,-19,-19,-15,7
1.59111970692086e+15,-17,-9,14,1,7,7,-34,-46
1.59111970692086e+15,113,43,-6,34,21,21,54,52
1.59111970693783e+15,-75,-33,-18,-19,-55,-55,-50,25
1.59111970693783e+15,-16,-0,19,30,3,3,-35,-12
1.59111970693929e+15,3,-31,-23,-7,-21,-21,-75,-66
1.59111970693929e+15,33,-1,-10,-17,-3,-3,4,-9
1.59111970696081e+15,123,51,44,42,59,59,28,18
1.59111970696081e+15,-15,-30,-40,-74,-42,-42,-7,-2
1.59111970696187e+15,-20,-6,5,-6,-31,-31,12,7
1.59111970696187e+15,26,22,34,24,40,40,2,-39
1.59111970697437e+15,-16,18,5,46,4,4,40,34
1.59111970697437e+15,-102,-22,-11,-17,11,11,16,-29
1.59111970698133e+15,1,-17,-9,13,-14,-14,-34,-41
1.59111970698133e+15,51,-0,-17,-46,-13,-13,7,38
1.59111970699754e+15,-105,-24,9,-15,3,3,0,-67
1.59111970699754e+15,-45,-34,-56,-40,4,4,-56,-66
1.59111970699829e+15,26,-1,6,-37,-30,-30,39,29
1.59111970699829e+15,31,7,2,18,-2,-2,-3,-7
1.59111970701968e+15,88,11,-7,-25,2,2,4,3
1.59111970701968e+15,-30,62,44,103,81,81,100,51
1.59111970702566e+15,-46,-22,-12,-14,-17,-17,-32,-41
1.59111970702566e+15,-87,-40,-15,-32,-42,-42,-63,-9
1.59111970703364e+15,29,22,16,31,16,16,31,9
1.59111970703364e+15,64,35,15,-12,47,47,53,64
1.59111970704262e+15,-56,-28,-11,-9,-37,-37,-26,-36
1.59111970704262e+15,-55,-15,5,29,-32,-32,-29,-15
1.59111970706452e+15,-82,-37,-42,-40,5,5,-13,-77
1.59111970706452e+15,53,10,2,-2,-20,-20,-12,58
1.59111970707229e+15,114,73,28,26,94,94,96,99
1.59111970707229e+15,-66,-46,-49,-53,-44,-44,-10,-22
1.59111970707977e+15,-7,-35,9,-46,-56,-56,-92,-38
1.59111970707977e+15,38,36,16,87,44,44,13,-3
1.59111970708167e+15,-58,-14,6,11,-9,-9,-86,-1
1.59111970708167e+15,12,-13,-13,-6,-18,-18,-53,-23
1.59111970709476e+15,110,43,28,34,13,13,33,49
1.59111970709476e+15,7,-37,-5,-36,-29,-29,-119,-27
1.59111970710121e+15,-19,17,8,11,17,17,97,-3
1.59111970710121e+15,-12,3,-11,27,10,10,33,-39
1.59111970711769e+15,-58,-30,-19,-71,-26,-26,-4,-11
1.59111970711769e+15,-27,5,19,65,-3,-3,-41,-1
1.59111970711869e+15,36,28,9,32,31,31,-4,57
1.59111970711869e+15,-38,-19,-17,-48,-14,-14,34,-12
1.59111970714028e+15,-24,5,-3,6,-9,-9,14,37
1.59111970714028e+15,94,21,24,-35,24,24,54,-4
1.59111970714169e+15,-52,-9,-3,28,1,1,-59,-5
1.59111970714169e+15,-81,7,-5,46,44,44,33,-33
1.59111970715463e+15,29,5,-7,5,-9,-9,-21,42
1.59111970715463e+15,65,-24,-24,-63,-39,-39,-33,-53
1.59111970716142e+15,92,48,37,28,54,54,64,43
1.59111970716142e+15,-48,-36,-24,-1,-46,-46,-128,-18
1.5911197071779e+15,-101,-8,-6,4,10,10,85,-24
1.5911197071779e+15,76,-4,-4,-53,-7,-7,25,-38
1.5911197071789e+15,62,-9,6,-4,-35,-35,-53,-30
1.5911197071789e+15,27,31,45,58,65,65,-57,43
1.59111970720007e+15,-28,-38,-35,-46,-14,-14,-101,-50
1.59111970720007e+15,-62,-1,-22,14,-43,-43,114,26
1.5911197072011e+15,30,-9,8,-23,-19,-19,-107,21
1.5911197072011e+15,92,51,25,56,14,14,117,30
1.59111970721468e+15,112,14,-5,6,35,35,-92,31
1.59111970721468e+15,-34,-13,8,-32,-7,-7,21,-51
1.59111970722076e+15,-32,-29,-40,-37,2,2,-6,-71
1.59111970722076e+15,91,28,22,0,-28,-28,80,25
1.59111970723838e+15,127,36,39,23,4,4,-78,104
1.59111970723838e+15,-61,10,-30,18,20,20,111,-5
1.59111970724337e+15,-119,-59,-25,-25,-59,-59,-35,-85
1.59111970724337e+15,78,-5,-3,-48,19,19,-64,-31
1.59111970726009e+15,109,33,-4,40,18,18,20,28
1.59111970726009e+15,-26,3,16,33,-12,-12,-77,69
1.59111970726109e+15,-95,-30,-12,-14,-12,-12,-14,-50
1.59111970726109e+15,90,35,29,-2,27,27,49,50
1.5911197072752e+15,-128,-44,-22,-28,-23,-23,-18,-85
1.5911197072752e+15,-15,-3,-8,-6,-7,-7,-35,29
1.59111970728105e+15,22,18,0,15,-6,-6,57,48
1.59111970728105e+15,-39,-34,-39,-36,-8,-8,-47,-63
1.59111970729749e+15,93,43,24,67,5,5,39,33
1.59111970729749e+15,25,6,41,56,14,14,-33,-55
1.5911197072985e+15,78,36,-13,-79,56,56,86,97
1.5911197072985e+15,-96,-53,-13,-31,-64,-64,-76,-46
1.59111970731965e+15,-46,-9,3,-25,-11,-11,34,5
1.59111970731965e+15,16,-1,-19,20,-4,-4,-36,-7
1.59111970732165e+15,-19,-9,4,25,-19,-19,-28,-28
1.59111970732165e+15,-37,4,-8,-2,32,32,17,14
1.59111970733433e+15,26,-0,4,-10,5,5,27,-45
1.59111970733433e+15,-59,-33,-9,-30,-28,-28,-36,-32
1.59111970734239e+15,45,31,29,34,8,8,46,61
1.59111970734239e+15,-52,-19,-37,-47,-6,-6,-8,-8
1.59111970735758e+15,-18,14,27,44,12,12,25,5
1.59111970735758e+15,57,21,-10,-7,32,32,15,43
1.59111970735858e+15,76,-4,4,-5,-32,-32,-62,-5
1.59111970735858e+15,-41,3,0,28,11,11,29,-1
1.5911197073798e+15,-121,-39,-34,-34,-17,-17,-11,-56
1.5911197073798e+15,36,-1,3,-4,-14,-14,-28,-1
1.5911197073818e+15,15,-9,-6,-2,-1,-1,-29,-41
1.5911197073818e+15,34,39,26,25,34,34,78,60
1.59111970739406e+15,0,-7,1,6,-23,-23,-16,6
1.59111970739406e+15,29,-4,-27,-41,9,9,-7,3
1.59111970740259e+15,-36,3,10,38,0,0,12,-15
1.59111970740259e+15,71,15,13,20,-7,-7,-12,22
1.59111970741658e+15,-11,5,-8,-41,20,20,36,22
1.59111970741658e+15,28,-8,16,18,-18,-18,-36,-72
1.59111970742436e+15,19,-3,-27,-7,-39,-39,-1,58
1.59111970742436e+15,-90,-6,5,-7,13,13,18,5
1.59111970744179e+15,37,7,-16,4,8,8,17,-9
1.59111970744179e+15,30,17,26,-15,13,13,24,50
1.59111970744284e+15,29,13,16,16,27,27,10,-31
1.59111970744284e+15,-17,-25,-17,-3,-34,-34,-52,-18
1.59111970745394e+15,-15,-0,1,-3,7,7,8,2
1.59111970745394e+15,-29,-13,7,17,-6,-6,-66,-23
1.5911197074623e+15,16,6,-42,-25,-10,-10,78,43
1.5911197074623e+15,36,-6,11,-27,-13,-13,-42,-20
1.59111970747786e+15,-63,-6,4,30,-11,-11,-2,-5
1.59111970747786e+15,22,31,11,25,34,34,53,36
1.59111970747859e+15,42,13,2,-1,16,16,0,7
1.59111970747859e+15,-49,-22,2,26,-34,-34,-61,-33
1.59111970750004e+15,103,26,-5,-18,12,12,42,40
1.59111970750004e+15,-55,-6,7,11,3,3,11,-21
1.591119707501e+15,-56,-22,-6,-29,-3,-3,-19,-37
1.591119707501e+15,53,17,-6,-20,1,1,39,50
1.59111970752233e+15,50,-0,24,37,-7,-7,-70,-32
1.59111970752233e+15,-13,-3,-12,-33,18,18,19,-9
1.59111970752408e+15,15,-1,-24,-9,-26,-26,8,52
1.59111970752408e+15,-4,-5,12,6,-3,-3,-29,-14
1.5911197075373e+15,37,26,-3,25,24,24,29,38
1.5911197075373e+15,31,9,3,-25,12,12,17,32
1.59111970754342e+15,-100,-24,12,32,-16,-16,-44,-53
1.59111970754342e+15,28,-9,-21,-29,-7,-7,9,-30
1.59111970755961e+15,-20,-5,7,-11,1,1,2,-9
1.59111970755961e+15,25,9,-5,2,7,7,-2,14
1.59111970756161e+15,5,20,36,19,35,35,17,8
1.59111970756161e+15,-49,-38,-55,-20,-51,-51,-46,-18
1.59111970757375e+15,23,14,21,3,8,8,26,7
1.59111970757375e+15,-35,-25,-38,-21,-39,-39,-12,-4
1.59111970758265e+15,69,22,41,23,5,5,4,6
1.59111970758265e+15,-11,12,4,0,31,31,40,-4
1.59111970759745e+15,-76,-26,-32,-6,-8,-8,-29,-45
1.59111970759745e+15,20,8,0,-6,-5,-5,16,37
1.59111970759846e+15,-38,-19,-14,-9,-27,-27,-20,-22
1.59111970759846e+15,12,6,8,14,10,10,-7,-16
1.59111970761971e+15,-29,-9,6,-34,9,9,1,-27
1.59111970761971e+15,-1,-3,-6,9,-29,-29,-7,18
1.59111970762172e+15,20,-1,-2,-22,8,8,-9,-15
1.59111970762172e+15,21,10,7,10,6,6,7,13
1.59111970763395e+15,0,7,33,17,9,9,2,-20
1.59111970763395e+15,44,7,-52,-15,7,7,35,29
1.59111970764239e+15,-75,-24,-7,-31,-12,-12,-16,-22
1.59111970764239e+15,-3,11,26,27,5,5,13,18
1.59111970765791e+15,-11,-0,-3,26,-10,-10,-19,6
1.59111970765791e+15,-3,-9,4,-4,4,4,-33,-43
1.59111970765892e+15,-17,15,-3,1,35,35,48,29
1.59111970765892e+15,7,-19,-3,-9,-42,-42,-66,-14
1.59111970767975e+15,42,11,-9,-10,-8,-8,35,43
1.59111970767975e+15,14,-5,-3,-19,0,0,-18,-11
1.59111970768171e+15,-90,-13,-6,-8,8,8,12,-10
1.59111970768171e+15,-2,2,3,6,15,15,0,-23
1.59111970769373e+15,-40,-15,-11,-22,0,0,-19,-17
1.59111970769373e+15,9,17,27,46,-6,-6,16,23
1.59111970770206e+15,24,8,3,-2,9,9,14,4
1.59111970770206e+15,16,17,13,13,21,21,27,24
1.59111970771661e+15,13,-16,-34,-37,-20,-20,-16,-13
1.59111970771661e+15,43,12,40,26,-3,-3,-20,-9
1.59111970772469e+15,-4,-13,-28,-23,-9,-9,-8,-12
1.59111970772469e+15,-90,-22,-13,5,-1,-1,-36,-28
1.5911197077401e+15,13,4,1,-22,5,5,43,12
1.5911197077401e+15,30,5,5,15,-8,-8,-7,6
1.59111970774111e+15,5,-4,15,-6,2,2,-20,-20
1.59111970774111e+15,23,11,-14,23,-5,-5,4,11
1.5911197077539e+15,-9,9,5,2,12,12,31,4
1.5911197077539e+15,1,1,0,-28,-4,-4,18,14
1.59111970776856e+15,14,-1,-12,24,-2,-2,-19,-17
1.59111970776856e+15,-1,5,12,-5,3,3,14,13
1.59111970777723e+15,-45,-19,-9,4,-24,-24,-38,-31
1.59111970777723e+15,18,12,2,10,0,0,18,29
1.59111970778322e+15,64,15,13,19,-8,-8,3,8
1.59111970778322e+15,-6,-14,-21,-32,25,25,-14,-69
1.59111970779963e+15,98,17,4,-10,-18,-18,18,57
1.59111970779963e+15,-79,-20,-8,-30,26,26,3,-54
1.59111970780166e+15,48,4,0,22,-26,-26,-3,32
1.59111970780166e+15,28,18,32,62,-4,-4,4,21
1.59111970782253e+15,-39,-16,-2,-4,-10,-10,-30,-24
1.59111970782253e+15,-9,1,-17,-25,9,9,20,17
1.59111970782425e+15,7,8,8,-13,10,10,14,11
1.59111970782425e+15,11,-5,-20,-42,-10,-10,10,17
1.59111970783653e+15,-30,18,29,73,34,34,3,-21
1.59111970783653e+15,-7,-5,-19,2,-19,-19,21,-2
1.59111970784384e+15,-42,-18,1,8,-6,-6,-30,-58
1.59111970784384e+15,11,-9,-40,-24,5,5,10,-23
1.59111970785959e+15,-22,-27,-19,-61,-30,-30,-30,-15
1.59111970785959e+15,5,19,35,63,10,10,-4,-5
1.59111970785959e+15,42,-12,-39,-56,-23,-23,-8,17
1.59111970785959e+15,19,27,40,31,25,25,21,25
1.59111970788202e+15,13,7,-17,14,1,1,25,19
1.59111970788202e+15,-45,-20,0,-30,-16,-16,-43,9
1.59111970788202e+15,2,8,-7,-16,25,25,19,10
1.59111970788202e+15,13,-1,-2,-18,-7,-7,-11,26
1.59111970789623e+15,26,1,1,-3,19,19,-9,-32
1.59111970789623e+15,-57,-28,-23,-39,-28,-28,-25,-2
1.59111970790466e+15,34,14,36,51,-16,-16,-25,4
1.59111970790466e+15,35,3,-1,-4,-6,-6,8,-4
1.59111970791927e+15,-5,24,8,7,22,22,44,65
1.59111970791927e+15,16,7,-11,36,-8,-8,13,6
1.59111970792027e+15,-37,-22,-22,-32,-14,-14,-32,-23
1.59111970792027e+15,23,12,25,12,12,12,-3,-4
1.59111970794156e+15,30,-9,-32,-52,-20,-20,-16,50
1.59111970794156e+15,-35,13,17,23,39,39,35,-10
1.59111970794242e+15,6,-33,-15,-30,-52,-52,-62,-35
1.59111970794242e+15,9,4,4,-22,-3,-3,28,12
1.59111970795623e+15,-45,-12,-5,41,-1,-1,-39,-41
1.59111970795623e+15,-19,-3,19,-6,1,1,-2,-15
1.59111970796355e+15,49,24,-23,25,26,26,25,21
1.59111970796355e+15,-37,-23,-24,-29,-13,-13,-20,-34
1.59111970797968e+15,-8,6,33,32,1,1,7,-14
1.59111970797968e+15,5,-4,-33,-21,7,7,6,3
1.59111970797968e+15,15,26,28,18,26,26,48,25
1.59111970797968e+15,-45,-14,-9,12,-25,-25,-25,3
1.59111970800205e+15,44,10,-6,-26,10,10,2,26
1.59111970800205e+15,-29,-14,29,9,-19,-19,-29,-34
1.59111970800243e+15,60,21,-10,1,19,19,28,23
1.59111970800243e+15,-95,-41,-34,-1,-41,-41,-59,-53
1.59111970801575e+15,51,22,26,27,12,12,14,18
1.59111970801575e+15,18,-2,-10,-20,3,3,0,2
1.59111970802319e+15,38,8,-1,-26,12,12,11,29
1.59111970802319e+15,16,20,31,35,21,21,30,12
1.59111970803947e+15,-85,-45,-49,-59,-34,-34,-35,-63
1.59111970803947e+15,41,28,32,94,7,7,-17,-9
1.59111970803947e+15,-27,13,24,23,5,5,45,29
1.59111970803947e+15,-34,-20,-24,-66,-6,-6,-7,9
1.59111970806105e+15,2,7,19,30,4,4,0,-9
1.59111970806105e+15,21,6,-2,-6,7,7,11,-1
1.59111970806956e+15,-18,-4,16,21,10,10,-23,-24
1.59111970806956e+15,101,20,18,-32,10,10,9,39
1.591119708077e+15,-86,-8,-8,19,1,1,28,-18
1.591119708077e+15,56,10,-8,-11,-18,-18,6,42
1.591119708077e+15,-59,-25,-18,-16,-5,-5,-24,-42
1.591119708077e+15,-13,-3,12,17,-19,-19,-16,9
1.59111970809904e+15,29,2,-25,-35,21,21,10,3
1.59111970809904e+15,10,20,15,40,25,25,14,21
1.59111970809998e+15,-52,-42,-29,-100,-42,-42,-35,-8
1.59111970809998e+15,-4,24,14,79,34,34,10,-29
1.59111970812208e+15,104,19,14,-15,-21,-21,18,63
1.59111970812208e+15,-8,-1,-11,-9,0,0,28,-18
1.59111970812208e+15,-30,-16,10,4,-35,-35,-29,-16
1.59111970812208e+15,-48,-10,-2,19,2,2,-15,-35
1.59111970813636e+15,71,11,-1,-12,11,11,3,4
1.59111970813636e+15,18,-4,-20,-38,18,18,-7,-12
1.591119708144e+15,36,25,26,57,14,14,23,14
1.591119708144e+15,-44,-31,-28,-53,-34,-34,-14,-9
1.5911197081597e+15,-40,4,10,29,15,15,7,-9
1.5911197081597e+15,-1,-7,12,7,-11,-11,-33,-10
1.5911197081597e+15,-10,-13,-14,-22,0,0,-28,-47
1.5911197081597e+15,117,46,27,27,13,13,56,65
1.59111970818105e+15,-49,-21,0,18,-26,-26,-52,-39
1.59111970818105e+15,-17,-8,-6,-14,-11,-11,3,3
1.59111970818206e+15,69,1,-54,-7,8,8,-19,-14
1.59111970818206e+15,-5,-2,2,-50,4,4,16,36
1.59111970819657e+15,72,-0,35,-1,-29,-29,-30,-25
1.59111970819657e+15,-46,-11,-14,23,-7,-7,-13,-59
1.59111970820374e+15,24,4,-16,4,2,2,-12,16
1.59111970820374e+15,45,14,12,35,4,4,-6,3
1.59111970821857e+15,121,47,17,17,44,44,52,59
1.59111970821857e+15,-67,-40,-18,-54,-56,-56,-32,2
1.59111970821952e+15,24,21,14,-14,25,25,61,20
1.59111970821952e+15,-34,-9,-2,5,-9,-9,-21,-15
1.59111970824157e+15,-33,-0,9,-5,6,6,0,11
1.59111970824157e+15,-20,-14,-17,12,-22,-22,-27,-21
1.59111970824257e+15,-41,5,12,18,28,28,-5,6
1.59111970824257e+15,98,29,-5,0,8,8,78,36
1.59111970825656e+15,-128,-42,-4,-24,-26,-26,-57,-48
1.59111970825656e+15,50,16,22,18,21,21,-1,-10
1.59111970826378e+15,19,-1,-50,-32,-15,-15,25,56
1.59111970826378e+15,18,-1,9,-17,-3,-3,-1,-14
1.5911197082796e+15,59,4,5,10,-13,-13,-16,-10
1.5911197082796e+15,-68,-33,-36,-68,-13,-13,-31,-4
1.5911197082796e+15,-45,-7,35,20,2,2,-23,-47
1.5911197082796e+15,80,26,14,40,23,23,-4,8
1.59111970830202e+15,15,5,-73,-49,10,10,55,61
1.59111970830202e+15,-26,2,33,36,-9,-9,-8,-1
1.59111970830239e+15,-31,-9,-18,-15,-5,-5,0,-9
1.59111970830239e+15,-69,-20,-8,-34,-1,-1,-7,-24
1.59111970832394e+15,86,-2,-17,-8,-26,-26,-29,-6
1.59111970832394e+15,28,26,-9,-15,43,43,66,53
1.59111970832468e+15,-98,-40,19,-35,-31,-31,-36,-63
1.59111970832468e+15,33,8,-8,20,-2,-2,-1,14
1.5911197083479e+15,27,8,8,31,3,3,-7,-22
1.5911197083479e+15,38,4,-15,-20,3,3,11,-9
1.5911197083479e+15,63,23,2,14,3,3,40,41
1.5911197083479e+15,-128,-52,-6,-45,-36,-36,-69,-67
1.59111970836206e+15,17,33,22,72,25,25,32,23
1.59111970836206e+15,-7,-8,0,8,-14,-14,-21,-12
1.59111970836244e+15,46,26,15,25,24,24,11,32
1.59111970836244e+15,23,-12,-35,-23,-23,-23,-9,-9
1.59111970838503e+15,-32,-3,35,16,-4,-4,-2,-10
1.59111970838503e+15,-47,-26,-62,-68,-1,-1,8,-15
1.59111970838603e+15,-42,-17,8,4,-6,-6,-33,-41
1.59111970838603e+15,-47,6,5,-26,13,13,37,47
1.59111970839882e+15,-36,-2,-1,48,-2,-2,-18,-28
1.59111970839882e+15,38,14,5,23,-3,-3,-5,33
1.59111970839977e+15,21,9,21,39,2,2,-3,-22
1.59111970839977e+15,-18,-22,-38,-36,2,2,-27,-36
1.59111970842271e+15,17,-1,-2,-33,3,3,-6,26
1.59111970842271e+15,-54,-30,-14,-23,-35,-35,-30,-41
1.59111970842975e+15,6,11,7,18,-7,-7,14,28
1.59111970842975e+15,7,4,30,37,4,4,-20,-41
1.59111970843658e+15,4,7,-16,6,1,1,19,28
1.59111970843658e+15,-7,1,15,10,4,4,0,-15
1.59111970845274e+15,40,11,5,-32,3,3,24,31
1.59111970845274e+15,-6,6,4,28,14,14,-3,-7
1.59111970845971e+15,-40,-9,-10,-16,-6,-6,15,-6
1.59111970845971e+15,127,27,25,10,-4,-4,-15,39
1.59111970845971e+15,-79,-17,1,19,-15,-15,-11,-36
1.59111970845971e+15,15,-0,-3,-4,-8,-8,-1,5
1.59111970848151e+15,-14,-8,-9,-27,4,4,4,-14
1.59111970848151e+15,17,12,12,-1,14,14,18,27
1.59111970848252e+15,68,19,7,-6,9,9,23,23
1.59111970848252e+15,-33,10,-32,-13,35,35,59,26
1.59111970849616e+15,-69,-53,-11,-16,-50,-50,-100,-100
1.59111970849616e+15,46,14,-9,-29,8,8,34,40
1.59111970850321e+15,14,15,1,62,-4,-4,-5,3
1.59111970850321e+15,12,6,33,24,5,5,-25,-19
1.5911197085196e+15,62,21,-4,-21,16,16,48,48
1.5911197085196e+15,-82,-36,6,-27,-6,-6,-40,-88
1.5911197085196e+15,53,-0,-36,-26,-12,-12,-6,31
1.5911197085196e+15,63,27,22,26,2,2,26,41
1.59111970854102e+15,-4,-9,-6,1,6,6,-49,-23
1.59111970854102e+15,-20,10,1,5,21,21,55,9
1.59111970854202e+15,-24,-9,12,-4,-3,-3,-6,-18
1.59111970854202e+15,-5,-4,-12,-11,-7,-7,13,3
1.59111970856454e+15,64,21,7,-25,16,16,22,36
1.59111970856454e+15,36,-3,-17,-1,-26,-26,-14,7
1.59111970856454e+15,43,31,39,71,24,24,6,1
1.59111970856454e+15,-35,-31,-62,-61,-34,-34,10,-3
1.5911197085794e+15,1,6,29,3,3,3,2,-7
1.5911197085794e+15,53,7,1,46,-6,-6,-36,-22
1.5911197085873e+15,-73,-2,9,-16,11,11,39,25
1.5911197085873e+15,-14,-18,5,-11,-14,-14,-51,-43
1.5911197086018e+15,17,19,-13,5,9,9,55,49
1.5911197086018e+15,-23,-7,-6,-5,-10,-10,-7,0
1.59111970860259e+15,21,-2,-9,-14,-5,-5,-21,15
1.59111970860259e+15,-28,3,14,6,23,23,-10,-2
1.59111970862403e+15,-10,-9,7,-11,-18,-18,-4,-13
1.59111970862403e+15,0,-0,-17,4,7,7,-9,8
1.59111970862502e+15,16,10,-12,-20,31,31,36,0
1.59111970862502e+15,1,-10,4,-3,-30,-30,-26,2
1.59111970863961e+15,-54,-24,-16,4,-28,-28,-29,-33
1.59111970863961e+15,109,30,27,24,21,21,3,6
1.59111970863961e+15,-109,-11,-6,10,8,8,26,-20
1.59111970863961e+15,-2,-8,-15,-10,-32,-32,-2,12
1.59111970866205e+15,-14,17,29,0,33,33,27,21
1.59111970866205e+15,-14,-23,-22,3,-42,-42,-27,-39
1.59111970866242e+15,21,-7,11,-12,-18,-18,-41,2
1.59111970866242e+15,-16,8,5,26,22,22,13,-14
1.59111970868508e+15,32,12,19,-14,-1,-1,27,27
1.59111970868508e+15,-14,19,-1,23,10,10,42,52
1.59111970869249e+15,1,-14,-15,14,-10,-10,-47,-45
1.59111970869249e+15,85,12,-1,-41,6,6,-8,55
1.59111970870085e+15,-112,-15,3,43,2,2,12,-52
1.59111970870085e+15,-21,-14,-14,-50,8,8,-20,-25
1.59111970870085e+15,60,3,-6,-19,-21,-21,3,14
1.59111970870085e+15,69,29,35,48,22,22,10,-6
1.59111970872141e+15,20,-3,-25,-38,-6,-6,7,25
1.59111970872141e+15,85,9,-15,8,-18,-18,2,19
1.59111970872236e+15,-18,-9,9,-14,3,3,-27,-8
1.59111970872236e+15,25,24,2,-21,33,33,68,48
1.59111970874387e+15,26,-12,3,21,-33,-33,-63,-42
1.59111970874387e+15,-104,-13,22,56,20,20,-41,-83
1.59111970874468e+15,85,1,-25,-39,-27,-27,-2,27
1.59111970874468e+15,19,13,16,36,15,15,-4,-2
1.59111970875959e+15,-64,-15,4,3,12,12,-9,-39
1.59111970875959e+15,58,3,-14,-33,-24,-24,4,52
1.59111970875959e+15,-36,-10,-12,-27,-4,-4,9,2
1.59111970875959e+15,37,13,14,-7,1,1,13,19
1.59111970878109e+15,-1,-1,-23,-17,3,3,-18,34
1.59111970878109e+15,-50,-18,-2,-13,-1,-1,-33,-27
1.5911197087821e+15,-23,3,5,21,9,9,10,-23
1.5911197087821e+15,5,-16,-19,-21,-27,-27,-26,-12
1.59111970880462e+15,53,5,11,25,-7,-7,-24,-20
1.59111970880462e+15,-13,2,13,1,14,14,22,-26
1.59111970880462e+15,48,16,1,-19,2,2,29,52
1.59111970880462e+15,-8,-8,-6,38,-33,-33,-23,-25
1.5911197088194e+15,-61,-23,-52,-42,3,3,-1,-17
1.5911197088194e+15,-22,4,23,-1,20,20,16,-16
1.5911197088194e+15,-9,13,9,20,6,6,17,41
1.5911197088194e+15,-29,-20,-4,-18,-12,-12,-41,-38
1.59111970884204e+15,43,12,-4,5,-1,-1,7,22
1.59111970884204e+15,-12,2,1,24,-8,-8,-2,20
1.59111970884238e+15,22,18,13,32,24,24,23,3
1.59111970884238e+15,-1,-30,-36,-52,-37,-37,-38,-23
1.59111970886446e+15,-66,-10,-1,-10,-2,-2,31,-11
1.59111970886446e+15,52,16,6,-23,26,26,9,19
1.59111970886551e+15,3,-18,-18,-8,-41,-41,-40,-9
1.59111970886551e+15,-52,-0,7,15,13,13,12,-9
1.59111970887929e+15,48,35,20,23,37,37,55,46
1.59111970887929e+15,-21,-8,-12,-14,-6,-6,22,-9
1.59111970887929e+15,6,5,19,20,5,5,-3,-26
1.59111970887929e+15,21,-18,-47,-48,-29,-29,-21,22
1.59111970890209e+15,80,13,5,9,-2,-2,-3,5
1.59111970890209e+15,-56,7,9,7,17,17,32,28
1.5911197089094e+15,-89,-20,10,2,-1,-1,-22,-42
1.5911197089094e+15,4,15,23,25,18,18,21,-15
1.5911197089247e+15,20,3,5,8,1,1,-2,-17
1.5911197089247e+15,7,-4,-14,-17,-24,-24,-5,31
1.5911197089247e+15,9,-20,-41,-28,-13,-13,-33,-36
1.5911197089247e+15,-39,12,10,24,16,16,51,20
1.59111970894054e+15,12,-18,-19,-15,-35,-35,-59,-19
1.59111970894054e+15,46,37,34,25,36,36,54,37
1.59111970894155e+15,-80,-47,-8,-25,-56,-56,-75,-60
1.59111970894155e+15,-11,7,19,5,28,28,13,-24
1.59111970896209e+15,52,13,-14,-24,-3,-3,44,60
1.59111970896209e+15,-5,1,5,22,-3,-3,0,-26
1.59111970896209e+15,33,-14,-5,0,-20,-20,-64,-35
1.59111970896209e+15,-38,-10,-20,9,11,11,-9,-21
1.59111970898433e+15,33,5,-2,-7,-4,-4,9,-6
1.59111970898433e+15,46,12,-1,-2,18,18,1,-1
1.59111970898433e+15,-14,7,-17,-6,6,6,45,35
1.59111970898433e+15,-18,-7,22,8,-13,-13,-40,-2
1.59111970899834e+15,-43,-5,-3,19,-2,-2,-7,-13
1.59111970899834e+15,63,22,2,8,13,13,-4,55
1.59111970900728e+15,42,34,24,23,37,37,57,5
1.59111970900728e+15,-2,-23,-25,-15,-58,-58,-40,19
1.59111970902128e+15,-6,-0,7,-14,11,11,0,-3
1.59111970902128e+15,-23,-5,1,9,-6,-6,-9,-7
1.59111970902223e+15,31,2,-2,-6,12,12,-15,9
1.59111970902223e+15,33,10,0,9,5,5,-3,5
1.59111970904411e+15,-68,-19,-10,-1,-10,-10,-19,-21
1.59111970904411e+15,87,38,23,21,7,7,66,56
1.59111970904511e+15,-90,-46,-40,-44,-30,-30,-30,-59
1.59111970904511e+15,102,36,23,-1,31,31,43,34
1.59111970906071e+15,60,-1,17,3,-10,-10,-50,-25
1.59111970906071e+15,-106,-33,-17,-37,-5,-5,-22,-36
1.59111970906173e+15,36,11,-13,19,-3,-3,-23,36
1.59111970906173e+15,57,22,8,27,2,2,28,27
1.59111970908107e+15,24,5,9,-12,8,8,20,-18
1.59111970908107e+15,-75,-28,-15,-11,-21,-21,-26,-34
1.59111970908207e+15,17,11,8,-3,7,7,29,24
1.59111970908207e+15,-21,-9,-4,5,-5,-5,-50,1
1.59111970910466e+15,41,12,10,2,3,3,-14,39
1.59111970910466e+15,29,13,10,32,4,4,-19,25
1.59111970910466e+15,-45,-36,-28,-25,-27,-27,-67,-49
1.59111970910466e+15,45,28,11,28,16,16,66,29
1.5911197091196e+15,23,19,3,5,24,24,50,19
1.5911197091196e+15,45,-18,0,-52,-23,-23,-39,-32
1.59111970912037e+15,-77,-13,22,3,-2,-2,-12,-38
1.59111970912037e+15,55,22,7,13,23,23,37,5
1.5911197091427e+15,-74,-32,-22,-13,-29,-29,-29,-44
1.5911197091427e+15,48,-0,-22,-24,-26,-26,15,17
1.59111970914431e+15,127,56,28,43,59,59,61,38
1.59111970914431e+15,-97,-25,-31,-26,-20,-20,16,-4
1.59111970916445e+15,-82,-28,-5,-4,-8,-8,-43,-54
1.59111970916445e+15,74,-3,-24,-21,-23,-23,-30,19
1.59111970916445e+15,-73,-7,-6,11,6,6,17,-12
1.59111970916445e+15,25,3,14,-5,-1,-1,-14,15
1.59111970917965e+15,16,5,-1,3,15,15,-9,-17
1.59111970917965e+15,-50,-1,9,7,13,13,14,-13
1.59111970917965e+15,26,17,21,-2,7,7,39,30
1.59111970917965e+15,-61,-16,-14,-5,4,4,-6,-31
1.59111970920165e+15,95,19,6,15,-17,-17,0,43
1.59111970920165e+15,-43,-7,-6,-17,-1,-1,8,-13
1.59111970920245e+15,14,5,-3,-3,-2,-2,11,11
1.59111970920245e+15,-21,-2,-10,5,1,1,1,4
1.59111970922466e+15,-73,-24,-2,-12,3,3,-19,-62
1.59111970922466e+15,64,8,-3,10,-15,-15,-13,24
1.59111970922466e+15,3,-4,20,-7,-11,-11,-26,-1
1.59111970922466e+15,-13,-5,-8,-20,7,7,-12,7
1.59111970923899e+15,38,19,0,9,6,6,40,30
1.59111970923899e+15,17,-6,8,11,3,3,-67,-22
1.59111970923999e+15,23,4,-3,6,4,4,14,-13
1.59111970923999e+15,3,10,1,-17,21,21,32,20
1.59111970926114e+15,-52,-21,-18,-13,-25,-25,-2,-21
1.59111970926114e+15,-4,-9,9,23,-22,-22,-11,-48
1.59111970926208e+15,-7,-5,-12,-2,-41,-41,1,45
1.59111970926208e+15,-15,-11,-7,-33,17,17,-24,-24
1.59111970928526e+15,8,21,19,20,33,33,32,18
1.59111970928526e+15,-8,6,3,18,7,7,12,-1
1.59111970928526e+15,-3,2,-2,-13,4,4,9,-2
1.59111970928526e+15,-94,-37,-8,-3,-33,-33,-32,-62
1.59111970929872e+15,59,5,-5,-26,-24,-24,1,49
1.59111970929872e+15,17,-1,0,9,-6,-6,-26,-5
1.59111970929972e+15,-54,-15,-11,5,8,8,-9,-50
1.59111970929972e+15,54,7,-6,-3,-14,-14,3,11
1.59111970932156e+15,10,-5,-13,-9,8,8,-12,-22
1.59111970932156e+15,64,17,-2,1,23,23,9,27
1.59111970932252e+15,-25,2,3,-13,4,4,6,30
1.59111970932252e+15,-52,-34,1,9,-19,-19,-91,-83
1.59111970934501e+15,-42,-5,7,15,0,0,-7,-12
1.59111970934501e+15,-12,9,-1,-5,6,6,51,11
1.59111970935191e+15,74,17,-7,5,3,3,9,37
1.59111970935191e+15,-19,-8,6,-36,-11,-11,-3,6
1.59111970935962e+15,-25,9,13,31,16,16,2,1
1.59111970935962e+15,-60,-6,-4,-27,32,32,33,-33
1.59111970935962e+15,-9,-39,-17,-10,-64,-64,-98,-43
1.59111970935962e+15,50,6,-4,10,-11,-11,-32,31
1.59111970938109e+15,16,17,8,16,0,0,67,14
1.59111970938109e+15,72,5,-12,-20,-3,-3,-4,10
1.5911197093821e+15,-59,-15,-22,-43,20,20,21,-32
1.5911197093821e+15,53,15,11,25,-9,-9,6,9
1.59111970940422e+15,20,16,6,23,22,22,7,15
1.59111970940422e+15,64,2,-19,-10,-16,-16,-13,18
1.59111970940504e+15,90,30,23,-14,22,22,31,36
1.59111970940504e+15,-75,-6,-4,39,10,10,-14,-9
1.59111970941882e+15,7,-9,-5,-23,-12,-12,-16,-8
1.59111970941882e+15,-99,-10,8,20,-1,-1,14,-20
1.59111970942717e+15,54,14,-3,6,-4,-4,18,26
1.59111970942717e+15,-3,3,8,2,12,12,3,-13
1.5911197094421e+15,-5,-3,-7,-14,1,1,0,13
1.5911197094421e+15,-47,-19,-20,-19,-17,-17,-30,10
1.59111970944243e+15,39,19,10,15,26,26,14,11
1.59111970944243e+15,27,19,21,18,14,14,31,1
1.59111970946436e+15,-46,-16,-18,-16,-18,-18,-22,1
1.59111970946436e+15,26,11,14,9,-5,-5,19,10
1.59111970946436e+15,4,-20,-5,-7,-24,-24,-61,-35
1.59111970946436e+15,-15,-4,-16,-10,-5,-5,40,-15
1.59111970948738e+15,27,-0,3,6,-3,-3,-20,-12
1.59111970948738e+15,-2,12,12,5,18,18,40,14
1.59111970948838e+15,-10,3,-6,2,4,4,18,4
1.59111970948838e+15,33,1,4,-12,-9,-9,-25,5
1.59111970950248e+15,38,12,0,8,11,11,-7,12
1.59111970950248e+15,2,5,-1,3,2,2,21,-5
1.59111970950248e+15,-79,-28,2,-20,-23,-23,-42,-19
1.59111970950248e+15,7,1,-6,-1,2,2,5,-7
1.5911197095242e+15,43,2,-8,-17,-12,-12,-11,21
1.5911197095242e+15,-83,-15,7,16,3,3,-33,-35
1.59111970952468e+15,44,31,1,10,22,22,81,50
1.59111970952468e+15,63,14,9,6,-3,-3,10,15
1.59111970954029e+15,-13,-14,-15,-23,-7,-7,-14,-19
1.59111970954029e+15,-26,-18,6,17,-4,-4,-52,-63
1.59111970954631e+15,-30,-7,-3,27,-18,-18,-28,-1
1.59111970954631e+15,32,26,2,12,23,23,61,14
1.59111970956259e+15,-70,-19,-20,-13,-19,-19,8,-5
1.59111970956259e+15,10,-3,7,-10,-6,-6,-12,-10
1.59111970956979e+15,-1,7,-8,6,17,17,16,9
1.59111970956979e+15,45,12,13,-25,17,17,23,4
1.59111970958533e+15,15,1,15,49,-24,-24,-30,-5
1.59111970958533e+15,-23,-18,-55,-57,-11,-11,-6,19
1.59111970958533e+15,21,10,16,-11,19,19,17,3
1.59111970958533e+15,80,28,7,21,21,21,10,25
1.59111970959786e+15,-113,-36,9,-7,-27,-27,-44,-59
1.59111970959786e+15,-23,-7,-2,9,-2,-2,-20,-7
1.59111970960683e+15,107,17,2,3,3,3,-19,22
1.59111970960683e+15,-30,-5,-13,-23,-2,-2,40,0
1.5911197096213e+15,-56,-4,-5,-5,14,14,33,-25
1.5911197096213e+15,44,3,6,8,-11,-11,-42,9
1.59111970962229e+15,31,10,12,7,-3,-3,18,2
1.59111970962229e+15,-71,-23,-23,6,-18,-18,-34,-22
1.59111970964479e+15,45,9,3,-11,10,10,-7,16
1.59111970964479e+15,2,5,2,-4,2,2,21,4
1.59111970964479e+15,32,7,15,5,0,0,-24,8
1.59111970964479e+15,-106,-29,-2,20,-26,-26,-26,-41
1.59111970965914e+15,1,7,-4,-1,2,2,22,23
1.59111970965914e+15,70,9,-23,-29,-5,-5,32,19
1.59111970966613e+15,4,5,3,9,3,3,2,0
1.59111970966613e+15,57,11,14,12,4,4,-13,0
1.59111970968109e+15,-24,-15,-20,-14,-14,-14,-16,1
1.59111970968109e+15,-4,2,5,5,4,4,27,-22
1.59111970969035e+15,-2,-7,-7,-12,-14,-14,1,-1
1.59111970969035e+15,89,19,12,-11,5,5,-11,47
1.59111970970439e+15,94,23,21,8,19,19,-15,16
1.59111970970439e+15,1,-0,0,5,-6,-6,3,-8
1.59111970970518e+15,-58,-3,-4,-18,8,8,35,4
1.59111970970518e+15,-80,-30,-22,-17,-8,-8,-37,-41
1.59111970971816e+15,-30,9,15,23,22,22,18,-3
1.59111970971816e+15,4,-5,-10,-10,-19,-19,-19,27
1.59111970972692e+15,10,5,2,12,21,21,15,-38
1.59111970972692e+15,-1,-4,-14,0,-27,-27,-8,33
1.59111970974176e+15,8,-2,9,-5,10,10,-38,-2
1.59111970974176e+15,-11,11,19,19,3,3,59,-13
1.59111970974869e+15,-46,-13,-1,-8,3,3,-31,-13
1.59111970974869e+15,63,-5,-21,-41,-26,-26,-13,27
1.59111970976442e+15,-31,-26,-27,-3,-15,-15,-97,-12
1.59111970976442e+15,18,30,21,15,26,26,90,31
1.59111970976442e+15,-63,-20,-4,7,-14,-14,-22,-41
1.59111970976442e+15,75,23,17,6,21,21,35,7
1.59111970978762e+15,89,3,-17,-16,-23,-23,-34,6
1.59111970978762e+15,-72,-21,-21,0,-10,-10,-33,-7
1.59111970978839e+15,66,12,-4,-11,3,3,17,15
1.59111970978839e+15,-128,-26,-7,7,-10,-10,-23,-26
1.59111970980184e+15,9,12,19,9,10,10,36,-3
1.59111970980184e+15,96,21,1,-1,12,12,4,19
1.59111970980262e+15,-128,-27,-3,1,1,1,-21,-46
1.59111970980262e+15,56,5,8,-13,-14,-14,-1,28
1.59111970982461e+15,67,30,3,3,8,8,80,46
1.59111970982461e+15,-13,-19,-17,-48,-3,-3,-42,-15
1.59111970982461e+15,86,12,7,6,-20,-20,1,1
1.59111970982461e+15,-37,-0,-3,3,13,13,13,-8
1.59111970985495e+15,-54,-9,-8,10,-5,-5,9,-32
1.59111970985495e+15,-4,10,23,23,7,7,-1,33
1.59111970985595e+15,80,13,4,-11,3,3,-13,26
1.59111970985595e+15,14,-6,-5,-7,-4,-4,-14,-22
1.59111970987772e+15,-4,12,-2,-19,0,0,63,42
1.59111970987772e+15,-99,-33,-3,-3,-8,-8,-43,-79
1.59111970987772e+15,29,13,-11,2,26,26,30,-3
1.59111970987772e+15,-16,-26,0,2,-42,-42,-74,-41
1.59111970988467e+15,41,28,24,10,31,31,35,43
1.59111970988467e+15,29,-7,-7,-19,-22,-22,-34,4
1.59111970988467e+15,-54,-6,-5,-2,8,8,9,4
1.59111970988467e+15,-7,10,9,9,19,19,28,3
1.59111970990786e+15,20,-7,-13,-7,-20,-20,-13,-1
1.59111970990786e+15,-34,-8,3,10,0,0,-25,-20
1.59111970990786e+15,-3,-7,-20,-1,-20,-20,7,-3
1.59111970990786e+15,47,20,-10,1,33,33,21,21
1.59111970992123e+15,-75,-31,-3,0,-22,-22,-58,-51
1.59111970992123e+15,32,-3,4,11,-9,-9,-26,-29
1.59111970992224e+15,-117,-20,-9,-4,-13,-13,1,17
1.59111970992224e+15,22,24,-4,-6,27,27,73,34
1.5911197099442e+15,28,-16,1,0,-17,-17,-79,-49
1.5911197099442e+15,59,12,3,9,-1,-1,2,18
1.59111970994495e+15,-39,-16,-2,-5,-16,-16,-20,-30
1.59111970994495e+15,-30,-5,21,3,5,5,-25,-14
1.59111970996742e+15,109,32,-16,1,26,26,38,50
1.59111970996742e+15,-84,-14,-12,-6,-1,-1,-6,-5
1.59111970996842e+15,92,21,34,38,-16,-16,-4,21
1.59111970996842e+15,-128,-42,-51,-33,-5,-5,-34,-50
1.59111970998107e+15,25,6,17,9,20,20,-29,-10
1.59111970998107e+15,86,35,-2,-1,2,2,96,60
1.59111970998207e+15,-43,-7,2,-4,-9,-9,8,1
1.59111970998207e+15,32,-9,7,-4,-33,-33,-49,6
1.59111971001276e+15,-11,6,-5,-14,7,7,39,30
1.59111971001276e+15,-31,-4,6,8,8,8,-5,-16
1.59111971001276e+15,12,-6,-14,3,-7,-7,-32,-16
1.59111971001276e+15,46,1,0,-8,-3,-3,-9,-20
1.59111971002749e+15,-82,-5,1,24,13,13,21,-18
1.59111971002749e+15,18,-6,-3,-7,-8,-8,-18,-14
1.59111971002825e+15,2,-9,3,20,-14,-14,-31,-41
1.59111971002825e+15,41,6,-18,-15,5,5,-3,11
1.59111971004166e+15,-31,11,15,-5,18,18,52,21
1.59111971004166e+15,-45,-2,-3,8,19,19,-9,-4
1.59111971004266e+15,-53,-11,-4,-18,-15,-15,12,10
1.59111971004266e+15,32,-5,-1,0,-12,-12,-30,-2
1.59111971006426e+15,-21,-17,-10,-14,-25,-25,-30,-16
1.59111971006426e+15,10,13,-7,-10,5,5,54,32
1.59111971006526e+15,22,7,0,-20,11,11,1,23
1.59111971006526e+15,5,-0,18,17,-9,-9,-9,-22
1.59111971008789e+15,-2,8,-2,-2,9,9,31,4
1.59111971008789e+15,-73,-31,3,15,-3,-3,-73,-66
1.59111971008789e+15,127,18,-12,2,-5,-5,-5,11
1.59111971008789e+15,-19,17,10,6,33,33,51,33
1.59111971010123e+15,-4,-8,-14,-18,-8,-8,24,-21
1.59111971010123e+15,-29,-3,25,34,-14,-14,-33,0
1.59111971010223e+15,-17,-2,-31,-33,28,28,12,-2
1.59111971010223e+15,-1,9,0,17,2,2,40,-2
1.5911197101241e+15,62,12,-18,-37,-11,-11,25,70
1.5911197101241e+15,120,7,7,3,-26,-26,-47,1
1.59111971013115e+15,-102,-29,-5,7,-23,-23,-37,-39
1.59111971013115e+15,-51,-7,5,20,7,7,-5,-29
1.59111971014755e+15,85,27,8,7,15,15,30,23
1.59111971014755e+15,3,10,13,7,7,7,29,5
1.59111971014755e+15,84,22,19,0,11,11,6,38
1.59111971014755e+15,17,-19,-40,-40,-23,-23,-28,-11
1.59111971016204e+15,-56,-11,-3,17,-5,-5,-11,-20
1.59111971016204e+15,110,31,14,6,16,16,12,42
1.59111971016204e+15,1,-15,-14,-18,-3,-3,-13,-52
1.59111971016204e+15,19,9,9,18,-9,-9,-14,27
1.59111971018465e+15,21,6,16,2,1,1,14,-15
1.59111971018465e+15,-72,-23,-16,-19,-1,-1,-45,-21
1.59111971018465e+15,92,61,32,25,74,74,117,55
1.59111971018465e+15,-82,-30,-19,-35,-40,-40,-12,20
1.59111971020765e+15,-46,-21,-1,-14,-21,-21,-34,-20
1.59111971020765e+15,69,17,-16,-10,14,14,33,14
1.59111971020765e+15,59,26,13,49,16,16,-2,15
1.59111971020765e+15,-4,-10,10,8,5,5,-42,-55
1.5911197102222e+15,56,11,-5,-1,-9,-9,31,22
1.5911197102222e+15,-89,-20,-9,-21,-7,-7,4,-12
1.5911197102222e+15,-8,-12,-8,-5,-7,-7,-46,-21
1.5911197102222e+15,68,20,1,19,-15,-15,32,37
1.59111971024385e+15,-103,-30,-15,-19,-4,-4,-23,-44
1.59111971024385e+15,51,12,2,8,3,3,1,21
1.59111971024479e+15,-32,-3,8,-3,-4,-4,6,8
1.59111971024479e+15,-18,-20,-13,-14,-4,-4,-53,-34
1.59111971026775e+15,84,22,30,14,-4,-4,13,5
1.59111971026775e+15,51,16,-24,-17,43,43,32,9
1.59111971026775e+15,-30,-12,10,-3,-48,-48,-9,21
1.59111971026775e+15,-26,7,17,21,23,23,-6,0
1.59111971028109e+15,-58,-27,-12,-9,-22,-22,-54,-33
1.59111971028109e+15,53,6,-1,2,-13,-13,-9,22
1.59111971028966e+15,-90,-16,-22,-25,3,3,54,-23
1.59111971028966e+15,7,-9,10,-17,-2,-2,-42,-28
1.59111971030408e+15,91,41,13,17,35,35,45,61
1.59111971030408e+15,-96,-35,-8,-6,-49,-49,-33,-29
1.59111971030523e+15,-15,-13,-11,-12,14,14,-50,-17
1.59111971030523e+15,35,15,0,15,-17,-17,42,16
1.59111971032837e+15,-40,-5,-3,12,11,11,-5,-23
1.59111971032837e+15,57,15,12,-12,27,27,6,9
1.59111971032837e+15,-5,7,-2,-17,6,6,27,43
1.59111971032837e+15,-21,9,2,13,32,32,38,-23
1.5911197103421e+15,25,-18,-12,-25,-46,-46,-45,4
1.5911197103421e+15,-15,9,7,-2,19,19,37,11
1.59111971034243e+15,0,-17,-12,-3,-21,-21,-30,-41
1.59111971034243e+15,-7,11,18,21,-4,-4,38,13
1.59111971036395e+15,7,-4,-23,-9,-1,-1,-11,31
1.59111971036395e+15,-54,10,8,10,3,3,61,30
1.59111971036468e+15,37,2,-13,-1,4,4,-3,-17
1.59111971036468e+15,-16,-7,1,2,-2,-2,-24,-2
1.59111971039479e+15,4,-15,1,-19,-11,-11,-37,-30
1.59111971039479e+15,-31,3,11,25,2,2,5,-12
1.5911197103958e+15,12,-1,2,5,-15,-15,-33,20
1.5911197103958e+15,-31,2,3,-7,15,15,26,-2
1.59111971040036e+15,30,3,3,3,1,1,-2,-3
1.59111971040036e+15,44,-4,-16,-7,-14,-14,-8,-17
1.59111971040952e+15,0,-3,-5,-15,-6,-6,6,-7
1.59111971040952e+15,-13,-13,-7,-3,14,14,-72,-15
1.59111971042457e+15,7,29,2,10,29,29,85,47
1.59111971042457e+15,-28,-30,-3,-29,-28,-28,-75,-40
1.59111971042457e+15,66,20,7,-5,8,8,30,32
1.59111971042457e+15,28,12,3,15,-10,-10,19,20
1.59111971044731e+15,-102,-22,-9,10,15,15,-31,-51
1.59111971044731e+15,-54,-10,-5,-1,4,4,-7,-15
1.59111971044832e+15,56,4,17,-4,-19,-19,13,-11
1.59111971044832e+15,10,3,-12,-29,-1,-1,10,20
1.59111971046133e+15,-3,6,10,29,15,15,-13,-29
1.59111971046133e+15,12,7,10,27,5,5,-27,-1
1.59111971046968e+15,-83,-27,-36,-23,-23,-23,-3,-11
1.59111971046968e+15,10,-6,11,-10,-39,-39,-7,12
1.59111971048462e+15,-56,-6,-13,-11,55,55,-22,-13
1.59111971048462e+15,-24,14,14,26,6,6,53,4
1.59111971048462e+15,1,-14,-18,-22,-25,-25,-41,27
1.59111971048462e+15,98,26,5,24,-14,-14,64,7
1.59111971050717e+15,-59,-32,-17,-23,-51,-51,-31,-20
1.59111971050717e+15,68,21,11,-8,41,41,18,18
1.59111971050775e+15,-42,-0,10,15,14,14,-6,-18
1.59111971050775e+15,46,10,13,-4,8,8,-4,11
1.59111971052141e+15,-10,-8,-6,16,-11,-11,-19,-31
1.59111971052141e+15,52,15,-5,1,12,12,25,17
1.59111971052972e+15,3,9,20,26,-2,-2,5,3
1.59111971052972e+15,3,-3,0,-9,7,7,-26,8
1.59111971054427e+15,-18,-12,-35,-36,-3,-3,24,-4
1.59111971054427e+15,35,-2,-3,-9,-27,-27,-5,4
1.59111971054523e+15,30,12,-3,2,16,16,19,15
1.59111971054523e+15,-34,-2,-2,0,18,18,11,-14
1.59111971056814e+15,91,-7,9,-6,-50,-50,-84,20
1.59111971056814e+15,-80,-30,-24,-46,-26,-26,15,-50
1.59111971056814e+15,95,28,20,20,17,17,0,29
1.59111971056814e+15,2,23,24,41,15,15,34,18
1.59111971058111e+15,-84,-52,-40,-52,-37,-37,-62,-70
1.59111971058111e+15,9,-2,2,7,-2,-2,-18,-13
1.59111971058909e+15,-26,-0,-10,-12,5,5,32,12
1.59111971058909e+15,89,14,-12,-14,16,16,1,5
1.59111971060471e+15,91,35,25,31,5,5,23,47
1.59111971060471e+15,-26,-4,4,12,-3,-3,-26,7
1.59111971060471e+15,5,-9,0,-25,7,7,-21,-39
1.59111971060471e+15,-82,-9,-13,21,-1,-1,19,-5
1.59111971062907e+15,127,40,21,5,15,15,55,50
1.59111971062907e+15,-59,-18,-13,-13,19,19,-20,-40
1.59111971062971e+15,10,-18,-16,-21,-48,-48,-50,23
1.59111971062971e+15,81,-4,2,9,-44,-44,-34,-10
1.59111971064187e+15,-123,-14,10,27,3,3,23,-55
1.59111971064187e+15,127,52,4,8,50,50,74,78
1.5911197106486e+15,-59,-16,-16,-17,-6,-6,-6,4
1.5911197106486e+15,-17,-11,-6,-5,-16,-16,-25,-8
1.59111971066341e+15,116,31,17,0,13,13,-4,55
1.59111971066341e+15,-114,-48,-21,-3,-41,-41,-60,-79
1.59111971067969e+15,28,26,22,25,35,35,55,-6
1.59111971067969e+15,45,-0,1,-30,-1,-1,-32,13
1.59111971068726e+15,80,32,13,25,14,14,49,32
1.59111971068726e+15,-28,-2,-2,-16,2,2,4,22
1.59111971068827e+15,1,-7,-8,-6,-7,-7,-11,-18
1.59111971068827e+15,-74,-16,-17,-27,20,20,7,-9
1.59111971071e+15,-5,-10,-10,5,-27,-27,-10,-12
1.59111971071e+15,-20,-6,10,7,-27,-27,-11,-12
1.59111971071063e+15,-39,1,-4,15,23,23,18,-16
1.59111971071063e+15,-32,6,-2,-12,-3,-3,28,48
1.5911197107242e+15,-21,6,3,-30,51,51,38,-11
1.5911197107242e+15,-19,-26,-20,-6,-71,-71,-25,2
1.59111971073202e+15,45,26,25,69,14,14,8,-6
1.59111971073202e+15,109,4,-28,-37,-4,-4,-33,13
1.59111971074955e+15,-116,-38,-12,15,-11,-11,-46,-95
1.59111971074955e+15,60,24,14,21,43,43,-3,-13
1.59111971075055e+15,82,-7,-13,-20,-43,-43,-46,29
1.59111971075055e+15,2,-5,-19,-26,-5,-5,20,2
1.59111971077104e+15,-42,-1,16,5,-13,-13,-9,15
1.59111971077104e+15,28,3,-3,-9,10,10,5,-5
1.59111971077159e+15,9,11,19,21,6,6,7,-5
1.59111971077159e+15,58,27,9,-1,18,18,52,29
1.59111971078384e+15,-85,-32,-25,-10,-24,-24,-14,-61
1.59111971078384e+15,94,34,20,29,20,20,3,72
1.59111971078484e+15,-19,-4,-22,-43,18,18,22,0
1.59111971078484e+15,-77,-46,-16,-10,-47,-47,-81,-66
1.59111971080785e+15,-31,13,7,23,47,47,26,12
1.59111971080785e+15,67,-5,-21,-33,-41,-41,-14,27
1.59111971080785e+15,-30,1,8,-5,-9,-9,57,-25
1.59111971080785e+15,33,-1,-12,5,-13,-13,11,-9
1.59111971083037e+15,39,22,15,23,-12,-12,1,44
1.59111971083037e+15,-50,-16,-9,7,1,1,-31,-28
1.59111971083072e+15,-70,-22,-25,-3,-26,-26,-11,-29
1.59111971083072e+15,49,25,38,46,24,24,-2,14
1.59111971084526e+15,31,-4,-38,-54,-3,-3,33,22
1.59111971084526e+15,-64,-21,-20,-28,-1,-1,-6,-30
1.59111971084526e+15,91,18,24,-13,26,26,-35,-5
1.59111971084526e+15,11,10,14,43,5,5,-20,15
1.59111971087542e+15,-11,-19,-27,-35,-36,-36,9,-19
1.59111971087542e+15,75,23,19,-27,11,11,19,58
1.59111971087542e+15,-64,-1,-9,33,23,23,7,-6
1.59111971087542e+15,-79,-17,4,8,-20,-20,5,-34
1.59111971089037e+15,127,37,48,32,17,17,11,28
1.59111971089037e+15,-128,-43,-33,-55,-5,-5,-13,-50
1.59111971089075e+15,70,11,-13,-13,-10,-10,-28,75
1.59111971089075e+15,-83,-14,-13,5,1,1,30,-41
1.59111971090468e+15,-100,-29,2,-18,11,11,-70,-29
1.59111971090468e+15,90,33,17,63,-15,-15,46,-7
1.59111971090468e+15,16,6,11,8,14,14,9,-3
1.59111971090468e+15,18,14,12,20,-16,-16,21,32
1.59111971092752e+15,-14,-24,-40,-45,-18,-18,-28,-7
1.59111971092752e+15,-47,5,18,16,30,30,0,4
1.59111971092752e+15,-5,-9,-8,12,-21,-21,-21,-19
1.59111971092752e+15,-4,-16,-28,-77,7,7,-12,-17
1.59111971095061e+15,55,20,21,33,-2,-2,23,-3
1.59111971095061e+15,101,25,9,14,2,2,5,47
1.59111971095061e+15,-5,-1,-4,-18,-3,-3,19,-2
1.59111971095061e+15,-6,-0,6,16,-1,-1,-6,-4
1.59111971097251e+15,-28,-12,14,-6,-24,-24,-59,19
1.59111971097251e+15,-59,-25,-28,-35,4,4,26,-75
1.59111971097251e+15,-35,-10,-11,-12,-2,-2,-4,5
1.59111971097251e+15,49,30,22,1,40,40,39,28
1.59111971098776e+15,-21,-11,-31,18,-23,-23,-8,7
1.59111971098776e+15,59,10,4,39,-25,-25,-34,28
1.59111971098776e+15,3,11,19,-13,25,25,46,-20
1.59111971098776e+15,-52,-12,-16,-8,-12,-12,-5,5
1.59111971101024e+15,67,21,23,31,12,12,-2,5
1.59111971101024e+15,-5,-0,6,5,-2,-2,-2,4
1.59111971101024e+15,44,7,4,19,-11,-11,1,4
1.59111971101024e+15,-46,-20,-27,-55,7,7,-1,-14
1.59111971102419e+15,6,5,-6,-14,20,20,28,-2
1.59111971102419e+15,59,12,14,13,2,2,-41,10
1.59111971102519e+15,-61,-4,2,-9,-16,-16,52,24
1.59111971102519e+15,-61,-33,-16,-20,-13,-13,-55,-67
1.59111971104676e+15,33,15,17,18,-3,-3,22,5
1.59111971104676e+15,42,19,7,-18,24,24,25,22
1.59111971104771e+15,20,4,-11,13,-4,-4,-16,19
1.59111971104771e+15,-23,-20,-13,0,-29,-29,-49,-16
1.59111971107038e+15,-28,-15,-5,-20,-16,-16,-3,-19
1.59111971107038e+15,-12,-0,-3,3,22,22,11,-11
1.5911197110707e+15,4,16,26,21,23,23,13,2
1.5911197110707e+15,4,-2,-8,-18,-5,-5,20,10
1.59111971108475e+15,30,6,-7,19,5,5,-7,-5
1.59111971108475e+15,-88,-12,-3,-8,-11,-11,10,0
1.59111971108475e+15,17,-10,9,-12,0,0,-60,-35
1.59111971108475e+15,26,26,21,38,23,23,37,20
1.59111971110789e+15,-9,-5,-1,-22,-26,-26,18,35
1.59111971110789e+15,-5,-6,-9,-3,10,10,2,-38
1.59111971110789e+15,33,-9,-22,-19,-34,-34,-32,27
1.59111971110789e+15,-5,5,12,-1,10,10,48,-30
1.59111971113084e+15,86,46,-2,18,43,43,70,74
1.59111971113084e+15,-128,-32,-25,-6,-23,-23,-8,-24
1.59111971113084e+15,36,-18,-2,-26,-31,-31,-64,-34
1.59111971113084e+15,127,44,33,37,23,23,14,41
1.59111971114403e+15,-47,-11,-9,-6,2,2,1,-25
1.59111971114403e+15,75,16,10,2,-9,-9,-6,36
1.59111971114502e+15,-3,5,1,16,5,5,12,-5
1.59111971114502e+15,0,-4,-22,-28,-11,-11,1,29
1.59111971116764e+15,-85,-17,11,2,14,14,-17,-55
1.59111971116764e+15,41,-12,-3,-10,-28,-28,-46,-15
1.59111971116764e+15,-27,-7,-14,2,-1,-1,9,-15
1.59111971116764e+15,14,-5,8,18,0,0,-76,-1
1.59111971119041e+15,38,24,2,-12,16,16,109,8
1.59111971119041e+15,83,-7,-1,-14,-11,-11,-79,-23
1.59111971119041e+15,-128,-19,2,-11,2,2,-10,-5
1.59111971119041e+15,57,-2,-9,17,-29,-29,-17,-25
1.5911197112045e+15,108,25,7,16,-1,-1,-3,53
1.5911197112045e+15,-88,-32,10,19,-10,-10,-77,-76
1.59111971120551e+15,49,32,15,-2,34,34,65,67
1.59111971120551e+15,-52,-39,-27,-44,-44,-44,-72,-26
1.59111971122695e+15,-39,-24,2,19,-19,-19,-96,-42
1.59111971122695e+15,92,35,5,-18,10,10,93,60
1.59111971122795e+15,-34,-6,-9,23,-2,-2,-23,-21
1.59111971122795e+15,24,29,20,22,34,34,61,31
1.59111971125011e+15,-25,-12,-2,0,-9,-9,-10,-18
1.59111971125011e+15,70,11,22,30,-9,-9,-43,15
1.59111971125069e+15,-111,-16,-29,-38,23,23,62,-26
1.59111971125069e+15,-57,-9,8,16,-5,-5,7,-30
1.59111971126416e+15,19,-17,-18,-31,-43,-43,-50,19
1.59111971126416e+15,-79,-17,0,6,11,11,-34,-19
1.59111971126517e+15,125,34,10,-10,12,12,79,27
1.59111971126517e+15,-12,21,45,54,17,17,-8,19
1.59111971128691e+15,49,31,-22,-38,57,57,103,34
1.59111971128691e+15,20,-3,0,45,-54,-54,-42,32
1.59111971129468e+15,-66,-65,-67,-42,-49,-49,-128,-94
1.59111971129468e+15,88,27,-18,5,17,17,94,2
1.59111971131029e+15,-24,-5,-1,-48,2,2,-6,36
1.59111971131029e+15,88,24,14,15,21,21,3,5
1.5911197113107e+15,30,11,15,26,7,7,-2,2
1.5911197113107e+15,-95,-23,-14,-22,8,8,-10,-24
1.59111971132444e+15,49,-2,14,12,-25,-25,-45,-23
1.59111971132444e+15,-70,-4,-15,-5,4,4,57,7
1.59111971133105e+15,-3,-11,-5,-14,-13,-13,-33,-9
1.59111971133105e+15,52,8,4,-14,-13,-13,-8,21
1.59111971134728e+15,60,35,13,32,55,55,57,25
1.59111971134728e+15,-23,-23,-2,-26,-62,-62,-34,2
1.59111971134828e+15,-35,1,9,-17,19,19,80,-32
1.59111971134828e+15,-67,-15,2,-2,-12,-12,-31,2
1.59111971136933e+15,-73,-30,-21,6,-4,-4,-99,-35
1.59111971136933e+15,32,41,20,21,53,53,96,25
1.59111971137027e+15,-52,-23,-24,12,-33,-33,-63,17
1.59111971137027e+15,127,42,8,-5,35,35,92,44
1.59111971138382e+15,-70,-37,-10,-29,-39,-39,-53,-45
1.59111971138382e+15,-48,-9,-19,-19,17,17,27,-32
1.59111971139854e+15,27,14,44,96,-16,-16,-47,-17
1.59111971139854e+15,-79,-33,-22,-40,-5,-5,-22,-52
1.59111971140815e+15,12,5,-5,0,4,4,-14,30
1.59111971140815e+15,22,27,-17,-16,35,35,111,38
1.59111971140815e+15,77,36,38,4,42,42,35,32
1.59111971140815e+15,-71,-42,-53,-21,-49,-49,-56,-24
1.59111971142958e+15,-58,-14,17,10,-12,-12,-8,-53
1.59111971142958e+15,60,21,-11,-12,6,6,38,48
1.59111971143696e+15,-1,-25,-16,-14,-11,-11,-74,-42
1.59111971143696e+15,49,10,16,-15,-5,-5,13,13
1.59111971144403e+15,-22,2,14,11,-12,-12,24,1
1.59111971144403e+15,68,1,-4,-10,-9,-9,-63,21
1.59111971145169e+15,-27,-14,-30,-31,1,1,28,-30
1.59111971145169e+15,13,16,14,6,23,23,29,3
1.59111971146766e+15,31,-20,-12,6,-29,-29,-77,-40
1.59111971146766e+15,32,22,24,6,20,20,66,7
1.59111971146766e+15,35,18,10,-1,18,18,-3,39
1.59111971146766e+15,50,-0,-18,38,-27,-27,-52,-2
1.59111971149024e+15,-29,-2,6,-13,-4,-4,31,-11
1.59111971149024e+15,-68,-4,14,44,4,4,-28,12
1.5911197114907e+15,72,-5,-24,-42,-14,-14,-47,25
1.5911197114907e+15,43,21,7,-20,23,23,67,26
1.59111971150395e+15,127,21,-4,19,4,4,-18,2
1.59111971150395e+15,-60,-25,-17,-22,16,16,-34,-53
1.59111971151254e+15,20,28,12,26,2,2,80,37
1.59111971151254e+15,-19,-21,11,-17,-18,-18,-38,-49
1.59111971152896e+15,80,22,-14,-15,-4,-4,49,54
1.59111971152896e+15,48,8,2,-11,7,7,5,6
1.59111971153001e+15,-96,-30,-1,-10,-1,-1,-42,-59
1.59111971153001e+15,100,12,-16,-16,-3,-3,-21,42
1.59111971155026e+15,-30,-10,9,15,-11,-11,-17,-16
1.59111971155026e+15,72,-7,-15,-33,-29,-29,-22,-21
1.59111971155125e+15,9,15,23,61,0,0,-29,9
1.59111971155125e+15,-102,-26,-7,6,-19,-19,-22,-47
1.59111971156397e+15,51,1,10,-5,-16,-16,-34,13
1.59111971156397e+15,-15,3,-17,-1,14,14,40,-1
1.59111971157225e+15,121,38,61,-5,29,29,26,42
1.59111971157225e+15,-77,-12,-43,4,19,19,-1,-10
1.59111971158777e+15,-38,-5,11,22,-8,-8,-5,-18
1.59111971158777e+15,20,-5,-12,-9,-17,-17,-26,20
1.59111971158877e+15,1,-11,2,-15,-5,-5,-12,-33
1.59111971158877e+15,-59,-0,5,11,3,3,40,0
1.5911197116099e+15,-26,-10,-15,-4,10,10,-32,-13
1.5911197116099e+15,-33,-18,-9,-2,-34,-34,-4,-39
1.59111971161089e+15,9,-2,-6,-14,-24,-24,28,2
1.59111971161089e+15,127,34,28,15,35,35,-1,21
1.59111971162396e+15,-40,-9,4,1,13,13,-35,-5
1.59111971162396e+15,-35,-11,-18,-30,-6,-6,6,-15
1.5911197116318e+15,-13,-8,-17,-14,-10,-10,-18,7
1.5911197116318e+15,69,27,33,23,15,15,19,26
1.59111971164752e+15,-47,4,-23,14,25,25,38,-1
1.59111971164752e+15,51,2,1,5,4,4,-50,-5
1.59111971164752e+15,-19,-5,3,-4,-25,-25,13,-1
1.59111971164752e+15,36,14,5,8,2,2,5,42
1.59111971167798e+15,-110,-30,-22,-24,-11,-11,45,-62
1.59111971167798e+15,4,-12,6,-17,-36,-36,-36,0
1.59111971167798e+15,85,18,-4,36,7,7,-1,-4
1.59111971167798e+15,9,-0,7,-21,27,27,-3,-6
1.59111971169951e+15,21,22,7,16,24,24,36,28
1.59111971169951e+15,-38,-2,11,-3,15,15,19,-12
1.59111971170051e+15,0,-17,-17,-10,-38,-38,-28,-6
1.59111971170051e+15,-22,11,7,28,17,17,-11,7
1.59111971170723e+15,22,-4,-14,-26,-33,-33,11,23
1.59111971170723e+15,-32,7,-4,6,32,32,26,5
1.59111971170723e+15,11,-10,25,4,-21,-21,-78,-7
1.59111971170723e+15,60,19,2,31,-4,-4,4,32
1.59111971173027e+15,127,25,15,-44,23,23,19,26
1.59111971173027e+15,-66,-27,-9,-2,-20,-20,-42,-42
1.5911197117307e+15,43,23,1,29,16,16,63,-4
1.5911197117307e+15,-128,-47,-61,-67,-6,-6,-18,-30
1.59111971175264e+15,104,21,9,-1,-42,-42,18,56
1.59111971175264e+15,-78,-6,-4,0,57,57,13,-26
1.59111971175264e+15,6,-3,22,-4,-25,-25,-25,8
1.59111971175264e+15,27,-5,-11,-14,-4,-4,-19,-9
1.59111971176611e+15,32,9,-2,30,20,20,-34,-4
1.59111971176611e+15,19,4,-6,-30,-16,-16,16,37
1.59111971176705e+15,-120,-32,-16,-21,-3,-3,-8,-56
1.59111971176705e+15,54,14,11,26,-6,-6,3,12
1.59111971178936e+15,-68,-20,-18,-29,-1,-1,-19,-11
1.59111971178936e+15,69,31,24,74,-5,-5,37,-1
1.59111971179037e+15,-16,7,-7,-9,36,36,26,6
1.59111971179037e+15,-42,-31,-14,-28,-25,-25,-65,-30
1.59111971181247e+15,-31,3,18,14,-15,-15,50,0
1.59111971181247e+15,-31,7,8,-4,48,48,8,20
1.59111971181927e+15,-34,-39,-46,-34,-62,-62,-49,-33
1.59111971181927e+15,92,23,20,11,-9,-9,47,27
1.59111971182771e+15,16,-3,20,10,3,3,-51,-18
1.59111971182771e+15,33,2,-15,2,-33,-33,1,11
1.59111971182872e+15,-55,5,5,0,50,50,16,9
1.59111971182872e+15,0,15,14,11,26,26,9,5
1.59111971184967e+15,-17,-25,-15,-3,-38,-38,-36,-26
1.59111971184967e+15,70,14,21,-18,0,0,0,26
1.59111971185072e+15,61,28,2,43,11,11,6,30
1.59111971185072e+15,7,-12,0,-12,-22,-22,-38,-25
1.59111971187273e+15,11,17,5,-14,21,21,43,48
1.59111971187273e+15,-117,-53,-29,6,-20,-20,-106,-104
1.59111971187374e+15,52,35,3,-13,9,9,112,69
1.59111971187374e+15,-2,-7,0,-5,-5,-5,-13,0
1.5911197118952e+15,14,-0,-3,-17,8,8,-34,20
1.5911197118952e+15,-85,-31,8,1,-46,-46,-25,-57
1.5911197118952e+15,13,9,-11,0,19,19,38,11
1.5911197118952e+15,17,4,-7,-19,18,18,10,-7
1.59111971191025e+15,-6,-0,2,18,-5,-5,1,-15
1.59111971191025e+15,59,19,16,12,16,16,-5,26
1.59111971191124e+15,58,23,-5,4,25,25,34,28
1.59111971191124e+15,-67,-26,-18,-12,-16,-16,-26,-35
1.59111971193229e+15,-9,-1,2,23,-5,-5,-23,-18
1.59111971193229e+15,69,29,13,-2,13,13,32,55
1.59111971193323e+15,-80,-26,-21,-19,7,7,12,-72
1.59111971193323e+15,89,7,23,21,-38,-38,-26,-25
1.59111971195467e+15,76,13,-3,-17,15,15,11,7
1.59111971195467e+15,86,22,-11,-13,-4,-4,61,43
1.59111971195667e+15,26,-1,18,10,1,1,-73,19
1.59111971195667e+15,-65,-21,-4,-18,-11,-11,-13,-15
1.59111971197035e+15,-16,-3,-12,-15,24,24,20,-32
1.59111971197035e+15,16,14,6,19,1,1,27,1
1.59111971197176e+15,40,3,-6,-16,-3,-3,-24,47
1.59111971197176e+15,-128,-15,10,15,8,8,21,-27
1.59111971199267e+15,5,-2,-8,-10,15,15,-10,-18
1.59111971199267e+15,-1,-2,-4,20,-14,-14,-12,-8
1.59111971199367e+15,14,1,-2,-5,-3,-3,11,-4
1.59111971199367e+15,-6,-10,-5,-12,-26,-26,-23,20
1.59111971200587e+15,3,-10,0,-18,-10,-10,-52,12
1.59111971200587e+15,62,32,9,18,38,38,57,25
1.59111971201508e+15,-22,-5,3,15,-3,-3,6,-32
1.59111971201508e+15,-19,-10,-6,-24,0,0,-17,-9
1.59111971203041e+15,61,19,-3,3,-9,-9,37,41
1.59111971203041e+15,-102,-20,-5,-8,-3,-3,-10,-18
1.59111971203171e+15,53,13,17,-38,17,17,9,10
1.59111971203171e+15,-4,-12,-11,20,-37,-37,-39,-9
1.59111971205176e+15,-43,15,30,47,40,40,41,-20
1.59111971205176e+15,45,-8,-25,-38,-24,-24,-33,11
1.5911197120607e+15,34,18,11,18,19,19,27,19
1.5911197120607e+15,-45,-12,-17,-16,-7,-7,2,-10
1.59111971206574e+15,79,6,5,17,-4,-4,-25,-35
1.59111971206574e+15,67,34,12,22,-6,-6,47,100
1.59111971207468e+15,-70,-34,-20,-28,-24,-24,-26,-64
1.59111971207468e+15,20,13,7,20,11,11,-4,40
1.59111971209081e+15,57,13,-3,20,7,7,5,-5
1.59111971209081e+15,-128,-56,-18,-75,-8,-8,-53,-84
1.59111971209642e+15,2,8,-6,34,-18,-18,3,22
1.59111971209642e+15,64,22,26,19,6,6,8,16
1.59111971211263e+15,-99,-16,-13,-32,-3,-3,28,-1
1.59111971211263e+15,7,-7,-3,2,-2,-2,-27,-19
1.59111971211409e+15,26,1,4,-10,-9,-9,-19,23
1.59111971211409e+15,23,23,11,8,44,44,41,-9
1.59111971212629e+15,-21,-8,1,15,-25,-25,-25,16
1.59111971212629e+15,18,10,-10,22,-5,-5,18,17
1.59111971213497e+15,36,-7,-13,-37,4,4,-22,-4
1.59111971213497e+15,-50,1,1,12,9,9,35,4
1.59111971215051e+15,7,-6,2,8,-30,-30,-18,-11
1.59111971215051e+15,8,-18,16,-7,-13,-13,-75,-42
1.59111971215244e+15,-43,-3,-23,-39,17,17,49,16
1.59111971215244e+15,17,3,7,18,-1,-1,-35,7
1.59111971217232e+15,-55,-35,-19,-36,-45,-45,-18,-48
1.59111971217232e+15,-59,-11,14,37,-8,-8,-45,-13
1.59111971217428e+15,78,20,-10,-4,-7,-7,58,28
1.59111971217428e+15,51,16,-3,-13,35,35,6,14
1.59111971218665e+15,-21,24,21,37,33,33,39,24
1.59111971218665e+15,31,-6,-12,-45,-15,-15,2,13
1.59111971219478e+15,-49,-7,23,48,4,4,-54,-42
1.59111971219478e+15,33,-3,-31,-13,0,0,-10,5
1.59111971221035e+15,63,17,5,11,-8,-8,26,26
1.59111971221035e+15,-101,-22,-15,-7,5,5,6,-37
1.5911197122117e+15,-9,-8,3,-10,-20,-20,-20,7
1.5911197122117e+15,40,23,19,23,24,24,11,20
1.59111971223245e+15,-78,-30,-16,0,-18,-18,-25,-66
1.59111971223245e+15,25,-4,-25,-20,-17,-17,16,8
1.59111971223444e+15,-44,-24,-6,-22,-9,-9,-35,-42
1.59111971223444e+15,16,26,5,0,8,8,83,79
1.59111971224633e+15,-34,-12,0,-11,7,7,-49,-20
1.59111971224633e+15,16,6,35,39,-14,-14,-21,-15
1.59111971225532e+15,45,2,-19,-43,7,7,11,-3
1.59111971225532e+15,85,-3,8,17,-26,-26,-98,-14
1.5911197122704e+15,-74,35,-5,21,55,55,125,78
1.5911197122704e+15,-20,-32,5,19,-41,-41,-86,-66
1.59111971227176e+15,1,12,7,13,-24,-24,69,26
1.59111971227176e+15,-4,-3,-15,-44,14,14,25,7
1.59111971229264e+15,120,24,-2,-7,5,5,20,31
1.59111971229264e+15,26,15,7,21,17,17,-5,15
1.59111971229365e+15,2,-23,7,9,-27,-27,-123,-22
1.59111971229365e+15,-60,-1,-9,-17,4,4,65,6
1.59111971230639e+15,30,1,-4,-28,-5,-5,1,10
1.59111971230639e+15,-19,-8,-4,-13,-8,-8,-14,-10
1.59111971232209e+15,14,-12,-22,9,-28,-28,-44,-3
1.59111971232209e+15,-2,-1,13,-21,34,34,-2,-8
1.59111971233789e+15,-71,-15,-7,11,-11,-11,8,-22
1.59111971233789e+15,20,11,19,-23,19,19,-14,24
1.59111971233892e+15,39,47,9,36,56,56,98,38
1.59111971233892e+15,-117,-68,-11,-13,-89,-89,-111,-86
1.59111971235254e+15,-27,-11,-18,-10,18,18,-26,-34
1.59111971235254e+15,53,13,-17,-8,3,3,49,1
1.59111971235341e+15,5,8,30,56,-22,-22,-46,24
1.59111971235341e+15,69,21,-6,-26,11,11,53,28
1.59111971236604e+15,13,-3,7,19,0,0,-33,-20
1.59111971236604e+15,-14,-18,-14,-51,-3,-3,-40,12
1.59111971237462e+15,2,38,15,32,56,56,106,15
1.59111971237462e+15,20,-19,1,1,-40,-40,-60,-38
1.59111971239038e+15,92,-0,-2,-34,-33,-33,-21,14
1.59111971239038e+15,-66,-3,-15,31,-1,-1,-23,36
1.59111971239143e+15,-14,-11,-21,-10,28,28,17,-68
1.59111971239143e+15,-33,-4,5,17,-10,-10,29,-30
1.59111971241252e+15,20,6,10,-9,15,15,-13,16
1.59111971241252e+15,81,46,8,12,45,45,94,64
1.59111971241365e+15,-47,-31,13,7,-47,-47,-66,-63
1.59111971241365e+15,-59,-15,-36,-36,9,9,-9,18
1.59111971243542e+15,-11,-11,-11,-28,-6,-6,-15,-12
1.59111971243542e+15,38,6,0,22,6,6,-26,-9
1.59111971243642e+15,17,5,-2,-11,-12,-12,51,8
1.59111971243642e+15,-62,-9,4,-10,-5,-5,22,2
1.59111971244933e+15,-11,-1,5,9,-14,-14,-45,29
1.59111971244933e+15,-20,1,-15,12,24,24,27,-45
1.59111971245137e+15,35,16,13,29,10,10,-6,21
1.59111971245137e+15,79,12,-10,-8,8,8,13,4
1.59111971247223e+15,58,9,-14,-58,9,9,37,42
1.59111971247223e+15,-92,-17,-6,35,-9,-9,1,-49
1.59111971247397e+15,-9,1,1,-17,14,14,-6,17
1.59111971247397e+15,7,14,13,35,10,10,5,12
1.59111971248662e+15,27,6,23,28,-19,-19,4,-18
1.59111971248662e+15,-43,-12,-5,-32,5,5,8,-6
1.59111971251102e+15,-7,-15,3,-22,-30,-30,-39,8
1.59111971251102e+15,-71,-18,-4,12,-4,-4,-38,-34
1.59111971251102e+15,-42,-0,-15,10,-5,-5,28,13
1.59111971251102e+15,41,12,4,2,14,14,23,0
1.59111971251302e+15,46,7,12,-11,-28,-28,9,13
1.59111971251302e+15,71,31,-5,18,56,56,15,36
1.59111971253229e+15,-24,-14,8,33,-28,-28,-19,-58
1.59111971253229e+15,107,31,-4,12,-1,-1,40,53
1.59111971253328e+15,-51,-34,-30,-32,-13,-13,-75,-26
1.59111971253328e+15,37,11,14,26,-28,-28,40,-18
1.59111971254572e+15,-23,-8,-6,-31,30,30,2,-4
1.59111971254572e+15,-72,-4,1,-21,23,23,11,23
1.59111971255484e+15,-9,-0,8,22,-3,-3,-16,-9
1.59111971255484e+15,46,12,-15,-24,-11,-11,45,30
1.59111971257039e+15,5,2,11,-17,8,8,-3,4
1.59111971257039e+15,45,4,0,24,-10,-10,-30,-31
1.59111971257175e+15,12,14,-14,4,23,23,18,43
1.59111971257175e+15,12,-29,-9,-18,-40,-40,-60,-53
1.59111971259222e+15,-44,-11,8,-21,-1,-1,-41,8
1.59111971259222e+15,28,6,-1,4,-14,-14,47,-5
1.59111971259346e+15,82,38,7,6,31,31,71,43
1.59111971259346e+15,-112,-38,-31,-10,-37,-37,23,-75
1.59111971261386e+15,127,40,19,23,43,43,4,29
1.59111971261386e+15,30,-13,8,-14,-52,-52,-53,7
1.59111971262218e+15,-17,-4,-13,4,2,2,-1,-1
1.59111971262218e+15,-1,10,16,-17,30,30,13,21
1.59111971263056e+15,3,2,-21,12,-3,-3,7,2
1.59111971263056e+15,-32,-4,9,10,7,7,-8,-16
1.59111971263157e+15,-2,-0,11,3,9,9,-2,-10
1.59111971263157e+15,79,22,12,15,3,3,-19,38
1.59111971265264e+15,-94,-28,-9,5,-10,-10,-13,-77
1.59111971265264e+15,16,6,-19,-9,-1,-1,38,14
1.59111971265365e+15,-11,-17,-32,-55,3,3,-15,-8
1.59111971265365e+15,103,38,30,19,3,3,39,60
1.59111971267605e+15,82,18,28,40,-48,-48,-3,23
1.59111971267605e+15,-108,-38,-14,1,1,1,-74,-84
1.59111971267706e+15,53,7,10,9,5,5,-11,1
1.59111971267706e+15,-19,-16,-8,-16,-5,-5,-58,-13
1.5911197126902e+15,-45,-3,-7,-20,-3,-3,67,-3
1.5911197126902e+15,33,11,-3,-6,9,9,24,24
1.59111971269169e+15,-41,4,16,35,-9,-9,9,4
1.59111971269169e+15,-35,-14,-8,-41,22,22,-13,-12
1.59111971271267e+15,17,-17,-31,-2,-30,-30,-57,-18
1.59111971271267e+15,-11,-8,11,19,-24,-24,-38,-16
1.59111971271368e+15,7,4,-10,-16,15,15,8,5
1.59111971271368e+15,-4,10,8,11,21,21,21,14
1.59111971273538e+15,29,25,10,18,19,19,56,25
1.59111971273538e+15,38,1,5,-47,1,1,43,-8
1.59111971273639e+15,31,-4,-18,-20,-18,-18,-29,20
1.59111971273639e+15,-62,-30,-3,13,-28,-28,-61,-74
1.59111971274929e+15,24,5,7,3,-3,-3,-29,28
1.59111971274929e+15,33,21,16,33,31,31,-5,28
1.59111971275129e+15,-28,-19,-30,-47,-37,-37,45,-17
1.59111971275129e+15,-82,-30,-40,-27,-3,-3,18,-65
1.59111971277231e+15,-49,12,7,17,25,25,25,31
1.59111971277231e+15,79,31,13,-3,23,23,52,34
1.59111971277407e+15,-82,-36,5,44,-43,-43,-90,-70
1.59111971277407e+15,89,15,0,-13,-23,-23,7,27
1.59111971279606e+15,44,2,-3,-23,17,17,13,-12
1.59111971279606e+15,-5,9,-17,-24,7,7,42,34
1.59111971279707e+15,-27,-4,-5,4,6,6,-7,-6
1.59111971279707e+15,49,26,19,20,19,19,46,36
1.59111971281004e+15,23,-1,7,5,-3,-3,-39,-8
1.59111971281004e+15,-23,-8,-14,-21,4,4,-4,4
1.59111971282412e+15,-14,-15,10,-17,-28,-28,-32,-33
1.59111971282412e+15,33,23,23,56,25,25,-9,27
1.59111971283169e+15,103,18,-9,3,-11,-11,0,11
1.59111971283169e+15,-80,-30,-2,6,-30,-30,-55,-39
1.5911197128335e+15,-45,-0,-10,-20,25,25,45,7
1.5911197128335e+15,59,5,34,13,-26,-26,-38,-3
1.59111971285513e+15,-66,-19,-37,-44,-2,-2,34,-18
1.59111971285513e+15,65,-0,-2,4,-26,-26,-64,19
1.59111971285676e+15,90,30,29,25,24,24,18,16
1.59111971285676e+15,-128,-14,-21,20,13,13,11,-17
1.59111971287036e+15,-46,-2,9,-3,21,21,7,-1
1.59111971287036e+15,19,1,-1,1,-17,-17,-1,8
1.59111971287659e+15,-4,7,12,-9,42,42,-25,-9
1.59111971287659e+15,27,-20,-17,-29,-53,-53,-26,11
1.5911197128925e+15,-15,2,6,8,9,9,1,9
